0,1,2,3,4,5,6,7,8,9,10,11,12,13,14,15,16,17,18,19,20,21,22,23,24,25,26,27,28,29,30,31,32,33,34,35,36,37,38,39,40,41,42,43,44,45,46,47,48,49
117.2387371338909,116.31043542632791,116.72020915987889,117.05307883791043,114.61439165213571,116.66703841137239,114.43047108184658,119.56962132845958,117.59420168731454,117.71549410604317,120.16777460185637,120.452447105725,117.59466551324373,114.1944054144001,116.84497146703406,116.95852929785987,118.99545246964648,115.49265888687866,116.84236919783872,113.53935525107329,117.11949173125048,116.2707489175277,118.50652534523984,116.48319215372071,117.19014284947552,116.96800706618224,119.70529833882097,113.902002647955,121.11623075796379,114.56923733306081,116.17745794478834,117.42919370689408,116.31314641446731,116.41753275176174,117.24571379858867,116.8972592794108,118.2477541071121,117.91786363737995,119.05761273139257,119.29151998228706,117.42399776497808,117.12221255167677,115.4482240527497,116.27417840063349,116.17569086162544,119.60940335057471,118.18184903822771,116.50875784444091,116.42899656795454,117.45356154835825
117.28333630907794,119.80194654471703,116.15182546253962,115.40256348674805,116.5617216050092,116.55903189582291,112.74387899466714,118.43269602581256,117.58488190973796,116.03996299640765,120.48406873839251,121.42384758918843,119.8259045241814,115.49009779593777,113.26093841297303,115.97701804284699,121.38363378668336,118.89426846712055,115.27844979608646,114.47995878952344,119.77640357214193,116.89308689401587,116.18736361465386,117.81676661974905,118.43170656896753,117.95136970643657,121.12121384371252,115.83683625979859,122.84485667435388,111.83513922161984,116.64942325818897,118.63364768408996,114.4111981247442,119.29762745454465,115.98926352380927,115.6804429398073,116.70945497595235,115.22797753840592,119.15238702364874,118.08624924582898,119.87730895958103,116.71134077502371,115.87275330161589,116.70089775178724,113.84019634588799,121.1163348707935,117.32161777650991,117.91530249566155,118.132080410212,117.21338608574752
116.52927321440148,119.93553910479513,114.81486631933466,112.9121576454601,114.78065106928888,113.31935247732896,113.2479795156219,121.35232477674481,114.83095233643603,114.4559840234884,116.0070613375168,123.85873500198194,118.03977634574287,114.80644587720727,114.788715333933,116.41488327635298,122.74529755801443,117.41238497670086,115.69829143932124,113.10657972400772,121.92839133159207,112.9588736128487,116.69118565389088,116.90450035444596,114.05657912514825,116.43754510312245,118.75684408311558,118.76403010062452,120.24656337554339,112.22630472396098,117.49059168851454,116.04453838420874,110.45161027091243,116.38429244298429,116.55676335933745,115.95380660143277,117.7239440219824,114.05837967936834,119.10257594739313,119.072276372337,117.94070325304097,119.27107196005218,113.92688843144666,118.86356482079681,112.92378798435193,122.1298824486101,117.39278739539833,116.2594640085893,120.21124782445727,114.32476080147929
117.20323614947137,118.22585577542407,115.2612799694191,112.64433422666889,114.21437110242238,112.86664633419132,111.54534219087456,120.4725131845638,111.79032743336539,115.13494897122114,111.95956581484172,124.70080821514185,115.41110502939054,113.16598527989379,116.64247279798705,115.11544146923968,123.49570274207792,119.48944090949381,117.56665492831675,113.25245496982363,121.53313049183568,112.3026647490536,116.89718395605543,118.37816607839886,113.59762248484867,116.42251111542458,120.27985047499165,121.06368705243477,121.13773940817603,111.92890488035601,118.41717649950037,114.6271730071267,110.4071096877925,113.20437228062183,118.02556318907051,116.05511417666894,116.15856201546744,113.27262917928964,117.02682571856639,119.01404980337877,119.47881882642875,119.53961161524154,114.97631360108292,119.96546283256245,114.3497347311152,120.90438550736779,114.55817605954539,117.68663942151983,120.90568912218022,114.57949461817276
117.42703608581299,119.53719091479711,116.03358819251315,112.57537645648517,116.45721200501876,114.04757891751085,109.84018270677235,120.96434185854496,112.6063535648216,114.91188775237681,111.49228876261891,128.79516151767479,117.56280002617805,115.25270766846293,114.80662679338586,113.03745114297706,120.49204391149458,121.20703247715977,115.06572082412973,113.44931947967576,126.65250282590125,112.67737136728626,119.06539073412812,120.91866815251092,111.53049007581737,114.8604530278807,119.29661146644878,120.752443531788,125.09457785766496,113.51339903499593,121.1875363673599,115.96315128932622,110.60822781686903,110.99697896482341,119.06545644183551,117.24692177663411,117.25554196948852,114.14529410649122,115.48208298294793,120.59420219458696,118.96423792035854,120.60050830068866,114.3738804437056,122.18374533688133,118.0822976109548,122.11934307830998,113.27840268761959,118.1172501666259,120.00466522080768,112.33552450474959
116.75020268462346,118.32621031301926,112.76424749048996,111.77960366139976,117.84155218305943,117.09799673707938,106.81684828268713,121.82212052208588,113.1280506980609,115.30365126453462,114.14480024534647,130.54114466924304,118.99706775750455,114.13779845894746,113.66266433314983,113.5070202462673,120.36209745494838,122.77508724304957,115.98231701008743,110.25714340170192,131.2781081820326,113.84780185982714,117.66040349732997,117.61502123507884,107.80018582427554,112.2207454625782,118.91746086584193,119.69974620401352,121.21305782438718,113.3071503611737,121.60683465427805,117.40970935826887,112.93541429007055,110.93587725565328,119.51488881604931,114.82860487370311,117.46425329161958,111.05782478522217,117.0943688433302,116.98577380555395,119.65604076146828,120.23114573960639,115.40819585387494,122.57956738830777,121.78509982216791,121.94534957078972,112.06956618703899,119.00941152829135,121.46168555490058,113.43603625586239
114.75834750766516,121.40815632901044,110.56148170696557,112.13510497183974,116.39089403308304,122.50621578085682,106.7741725774232,123.15368053449068,111.72785684473675,113.51247138547862,112.32337271795546,128.40448395849148,117.18095214734741,114.98964505546103,112.97196698759745,110.86425993415179,118.46560576961693,122.54909454865611,112.05802810973653,109.10503630980189,132.7183920018664,114.17426617458767,117.64307329318144,115.3839076509734,108.06590013142963,112.27375958732827,120.99142473746332,119.57764157382329,118.38950903962588,113.5837733466635,121.76620758647914,116.44168830447269,112.68747752959746,112.44331475786169,117.1000941347529,117.34490807589839,117.91941620568696,110.45628306076495,121.26907983366068,113.77234746684,119.00679356117615,122.95496364305205,114.0715478035322,125.04589034440342,120.62910168642634,123.55095283177499,111.78268493593859,116.67132257661896,121.3609005850284,116.12248848470873
115.84843113439182,121.30331760753849,109.56189863916742,113.75922226996393,117.35178634565987,121.28015112212294,106.38977910202021,123.30427691491245,109.20064854512209,114.06531349155885,112.72935455681849,127.48715367753638,117.86576498131248,114.92359251440598,114.2855445410559,112.13008067546362,116.98545227111872,125.46022245081568,110.60471477753313,107.20454314476781,133.85131569360985,111.78750930918018,118.20643243838154,116.76007015959146,108.31328094470595,111.7462807664952,120.1235604859173,119.41323569657636,120.47911776562067,115.81418995712808,121.16718623680714,118.06850862117676,110.1029942596064,113.30067238191275,118.47936299959593,115.13501410788986,118.52353105339078,110.08419388051381,120.53980520336309,112.82202652640512,120.61157588695369,122.16243965379338,115.31967806476814,125.60623268452458,119.83045980941819,126.8336406046421,111.35569595441535,114.0554102462469,120.62981150206392,116.90929397151214
115.75189257509435,121.06335577313388,109.0747295010581,116.41358302778382,117.98869581236565,121.03006228253928,104.71507185264677,122.77570840100059,104.73234711890976,114.28519058471083,113.13483539980935,126.12797781930713,120.01869653253131,115.13195712294687,115.49600591140604,112.88874900774388,116.89930619490481,124.55281822681214,109.21430091690395,110.62931268919517,131.9754537675617,110.93024595790109,115.51389692576834,115.17827767888028,107.40132695078472,112.60371045088954,122.44727024614063,120.6467022444056,120.66825754899918,115.59797741162558,119.17358313501327,120.2674585683422,109.40226935441883,114.1964146384076,116.35972828055955,113.44129006901113,116.8054188790523,111.46587597682436,117.46108256161841,111.69736755974046,121.51502136884245,121.72363631534927,116.7558320439447,125.03264276078731,120.17946644335179,127.828019882855,110.29717922150236,112.94077148811117,124.19271596870091,116.55744824646428
117.01323466842392,120.22446769515747,109.89338823753178,117.01322761985655,119.3588029253583,122.88653148575152,104.32472743323376,121.32932026974885,105.32940607576211,116.33811284362265,111.76426918368033,125.75859093980573,122.73633861015598,117.00972136320847,113.06903809409046,113.83313271248336,117.27645759208364,127.84409198539028,106.12199696891776,109.55011259323723,132.7337993590217,116.87396693858467,113.9773981602962,118.43316088575115,108.6841872254599,111.89581979606427,121.69400044699915,120.30206876713089,121.73551425062203,116.56512291430629,121.85292002046839,120.80949572160928,111.65239101428345,115.20091649524032,115.55660738306014,110.93511047810007,115.34406782911857,112.52350888823877,118.67663917275208,110.56732269392603,121.5939185485111,121.3452448107147,116.43569429067702,127.27586847521815,122.4498622728475,127.52401372080203,111.29724469647388,111.17498556650277,123.5675619631488,116.83058248390374
116.66911684504637,120.26539660868016,111.33022826731751,120.88139891985249,121.70654113794582,123.49771120105005,104.7313076655318,120.88202274579014,104.06777689300536,117.63071255950858,111.31679359247066,125.70797664448396,124.2409353448384,120.20100038807938,115.86598507043782,114.38248385137202,118.14419329348772,130.4023625700166,105.12795651721781,112.32427924039511,134.41170194476217,116.35626659555642,115.5964596616259,117.12949388414721,108.92273129851884,119.13241798082552,123.00077898861196,120.75396242609547,122.66302167962084,118.54887091682072,120.4802698273845,122.30993137807418,113.10402549320506,114.40357108860596,112.72228106060818,112.21243123607769,118.32833232613868,111.26809436138717,116.14576025726005,112.60144775347312,119.28257961336472,124.36601798928488,114.86664601752229,131.66091846981843,126.3903934129216,127.10259463242515,113.28711163026492,112.41157203506044,122.32474819060808,119.28881919814714
117.20620932069897,118.8506234560522,106.07471900739532,121.09886060509629,122.39862089403762,125.51380521090708,103.57533505790343,118.52347412401748,103.72261138978952,120.80167718056687,113.07503126968805,124.38927035654137,127.14937676333994,118.34697677934007,117.32323889795123,114.17399632480067,121.05360145610928,131.18572881245396,107.30529483088195,114.99240205464706,134.1215613895709,116.02402319131576,119.82276048637772,117.38233552536171,108.79378995297051,120.52070828573515,124.47111875217921,122.82567341382136,124.46289434158084,118.6683411520193,120.1594039618898,123.68090153162487,114.29942542718042,116.94777602356828,111.24907449440636,117.81446130598887,116.49030244828506,113.2088568013312,116.40498620447651,110.98909437183846,118.45477476312327,123.19419459834735,112.05467587439698,131.56065374965922,126.0139093625665,125.33468232721208,112.30217222352621,114.83654762297627,121.9508702566046,115.87021349358142
115.07459782572161,115.81911837616074,105.87722847019784,123.53963778557606,123.52430386585361,124.73773114886433,103.34374091362395,117.57415896171943,102.87785581071046,127.39217243120817,113.64310983796058,127.78341102190497,124.08106163207563,117.7410338805391,119.13711560213584,115.72419558468164,119.49380697057673,132.99680696094944,109.65256773145589,115.3810220286333,133.2760986528955,115.86335989073437,116.35114809417293,112.69043768844041,109.80809486253152,117.39851915077328,127.25741760453838,119.8720674948788,122.59385815816545,118.92296807361906,119.58809427813998,123.49404561787524,112.75192320215385,117.36822133868537,111.05840574085659,118.32636714542727,112.25313201924446,112.50360892119282,113.84949052387479,109.16492527482765,119.08493368212446,123.25906134839367,112.20908276660118,128.6415461746173,125.64126940645745,127.11490888258828,113.7307871926174,114.8095789645783,123.47139723956872,114.99176823379443
114.00776441445325,115.07622304983761,104.9287202600379,125.3590980129707,121.84424403484134,124.09066036051736,103.22678090967794,116.7581456702984,102.4017515649348,127.58569777488933,114.03837382081973,130.0317454006815,126.10806810452621,117.318195732124,119.57900744273141,118.81503352912695,117.88730021913399,132.07728974591723,109.9540355747898,115.53615149075758,130.54463926813173,117.1761478805405,116.50443627962451,112.67809647933451,108.89274645295839,115.79080375368108,126.39575061481918,119.7095694293741,123.21406047573063,122.09593175548578,119.72562385579323,124.38875476423335,111.01493525816778,114.90756341214589,111.17497144631241,119.48760714961237,113.5303544713896,110.36128487898662,111.9203809290882,107.81352436926514,121.42758489581217,125.55748844397667,112.51722906056064,130.91647094637685,123.53925616597125,126.73527419724475,109.6335585738266,115.30407471847282,124.50378774645054,116.23719205785545
115.33713035174844,114.72934489697661,104.78992010718864,123.26228921931082,121.85984092019704,126.56822201589738,101.93409510894868,115.85032017961072,102.72851658329863,125.37053490309448,118.51405467499772,130.54405706305357,124.7023058510747,119.28415681459981,119.15788708925271,118.65262145332116,116.62336181080305,128.04995008224114,110.40072357995952,113.84114844614815,129.79269552574723,116.09722668496862,116.30028135838545,113.75435013978226,108.81815534108121,117.30722860803272,124.69862343101492,120.44926398216603,127.19558344891443,121.71556230976425,118.75247800305885,126.21468790846625,110.3745310937196,111.8978504161155,112.85418006683322,118.61173439411142,113.90763369832537,111.00229054173454,110.67171215280172,106.55082348173589,122.20686241441112,127.46392308506718,108.12773772614588,131.5072273419961,124.22563444530238,125.74201833961727,110.27106935645487,119.11070214228742,123.02426552874681,118.14890477782473
113.6136248803023,114.7509650117501,106.00894928892023,123.96942115790209,123.63443085762215,124.68964726826059,102.23117724296569,116.20218605282959,100.69977579448327,124.05716299581754,119.51381545791764,135.17705299978627,127.9099855783233,119.74505441386049,121.17788814714532,118.13542677576234,118.79352295786393,128.38627000599698,110.58014206585642,114.60956132033488,128.69209368235758,117.85701401107092,115.9291046795199,112.60195227627509,113.38513233199289,119.12935130034593,126.66393587505434,121.6477637151203,127.64740131069534,119.71084593214927,120.6809119702246,126.31296458157114,109.52424271013523,112.6034900171461,115.32692365162002,119.6884970132445,115.58567560246075,105.6850945659271,110.09658196909344,108.02564869370472,118.54317123344451,127.45919514529834,108.29583756961195,131.89407220812765,124.71981803908123,126.50764518356718,110.4560426053524,119.41949196361104,125.16205508123615,119.40907367569727
113.10226478983252,114.11903589729303,104.53851791730543,119.53220420787694,123.81002558288887,124.40228290822526,101.50369850806936,117.26288864307804,99.78410972920965,123.97423929367366,118.74992291174568,134.4892594954059,124.52397924448798,115.3951467034359,124.49542772034143,119.36075660937442,118.55083064511173,126.74236482988142,111.07654067591334,118.93702997831193,126.09810877472923,119.46921777249854,112.835418325556,114.71280890495318,113.43163137669828,122.17204001845373,128.9694193592194,116.43920514984508,125.76720436969518,117.35977101679036,118.72284974044517,126.241165904519,108.08700622574699,111.27850491988427,117.18851782701567,121.93157484467818,117.78108922842425,105.78247245861184,110.75084320980879,106.74459099963434,120.06699314361487,128.17906435408656,109.84399175924078,129.33933877538868,123.53312488670619,126.49176670567472,109.0895514881769,117.63814372261413,127.38518112555226,121.43107966935125
109.81399250489217,113.74551670475931,103.17575254905775,116.79916067658266,122.08634956342433,124.12312110562151,101.0212808289191,117.24100279969788,100.4251120575248,124.45363836523805,116.65690242907914,136.0010349132528,126.6392535333103,113.92144309125956,124.14514240129712,118.48183212021748,122.44930953153039,128.41338060836335,109.21448071166773,118.04823091165018,127.42968378315085,121.14839097065091,110.57101078147464,113.45827785759458,115.96079381076868,122.3180968442399,129.67560856049658,115.55514891123572,125.93153400764436,117.00296511540759,118.37774802857236,127.06575711817806,108.20630392358882,109.31144796703886,115.79446118471431,122.91496451288783,118.97764986680174,108.53174135512019,111.91564927506637,107.31060209400955,121.28529474096105,129.04559414259484,107.9539744120816,130.58913884595054,123.16827574566268,129.05791862431627,108.18589338745414,116.24530116638927,128.5377090773627,122.10576187728732
109.21600385472769,112.94244144612831,102.36122549813469,112.2437222214027,119.49584747165629,121.50222290965422,99.82556942996678,118.91353744658048,100.16693956201388,123.56184354486268,113.78857821726453,136.95246249552392,127.43100848978797,116.04752021905436,124.78077015971081,117.13274681912999,125.47407153509194,132.61597412885385,112.05574744400433,116.62267914071167,127.43417243043116,121.62664319619897,111.71627985854964,113.63991960935188,112.47505102990921,122.82736680794646,129.7181059780988,114.63706058289019,123.84210344844006,116.1109320736115,117.17082837058906,125.07316469903326,109.38832923961361,111.6756895934558,118.3531379484065,121.44749985890941,116.82313806976461,109.46475977594847,112.71501284410884,107.26259250693651,119.50965955672902,124.17925714204279,107.4319012457093,130.83886195873725,119.38204804000301,129.74476778674125,105.28665947777874,116.8072389200497,127.77298506794398,124.91445604062406
111.32666668533071,110.21094596162841,101.47570067204848,110.86449135775575,119.39760905100671,121.08847645759855,101.02885899733911,117.18513624003934,99.0661782596442,122.17312888049003,113.90378436243698,135.065283276221,127.45715190073916,115.4491662824299,123.58887347452128,116.97634845864351,126.89376473147054,132.8379790944111,111.89792022095034,117.25740833034676,127.20942308498586,122.89974843711998,112.30099871501935,112.70095384342558,114.14308789660882,122.97585140103322,128.59861048434843,118.24027037477968,127.43004484488891,119.08789517691085,116.30852319289117,122.33304697622778,109.08895577953753,114.17006097804713,115.7745506154424,120.95364183575973,116.54764709951763,108.6763146174451,115.06674905378605,109.65332745723052,120.94593565482847,124.78702085336118,109.54568781599411,131.54618440750377,118.70157304060479,128.1617923928282,106.23132993414416,115.63167983156235,129.81999329533443,122.63614943911867
114.34340636073125,112.50885685649686,102.33306276855072,112.01573513920492,116.60920642605296,119.72423362980085,100.29751507920463,115.79429187737982,97.69889608807786,121.00616586768088,116.07311692222007,133.8708261397194,128.49209399611226,113.95452710371436,124.57531481987837,114.14930758762142,127.96005676100788,136.10734880590857,110.46668416403125,116.15578716610621,125.55053545885494,124.22806326909942,114.67718810985426,113.04147327982567,116.85459721905343,124.4698196025648,128.88954776037104,120.54149689583885,128.3834711201454,122.7733730513987,115.51025695725245,121.142131529062,113.05569162185478,115.93605359726939,115.58421526544012,118.08797759522004,113.74817022078287,108.3407751463423,116.39730914548804,113.45774356672281,122.08906477890154,124.08583806452803,110.24890101258968,132.88702815021793,119.9725115530908,128.63709492839482,105.42251403222664,111.00680833031952,129.0446702181633,124.62767828097674
116.59127189643769,113.70199008368421,103.11999129277463,109.47726530132225,114.57837736042184,121.73060813603108,100.74470513795895,117.26398623883044,97.06873276717906,120.44718848648246,117.78916622470267,135.159387989939,126.49077899023126,113.86534096005212,127.00749183363322,116.61715201425636,124.28628563806849,134.41379812467792,109.72167734830312,114.52643024266494,129.04058978839063,122.4990149072416,116.46419557210871,115.20489720302245,113.7362680799402,125.01139444271769,128.2083327820211,121.7414360943353,126.31861468811273,123.95695713491789,116.14020769578373,121.19285405545729,113.1859976738291,112.66172951435779,115.0126538923744,119.33184346116379,112.47165132072818,108.68951209575117,118.47502893133179,111.90365293007893,122.70137977263424,125.76497401125542,108.32664919924335,130.36120145222185,117.28428998448521,133.03630461653205,103.09738601925203,112.09037665861126,127.6045708791358,124.30621360090731
114.1410501696406,110.61092478713006,104.54885053588474,110.41354134629464,114.85561774933872,125.42643217839426,102.9519030795904,116.17730909723024,94.30307559861286,118.51449961710327,117.95272596088148,135.0210689402356,122.7900146988801,113.43799343835515,125.52684889046502,114.39279708255248,121.87858615870607,133.97511952215123,111.71721954672823,115.86192506421976,129.31880203941657,121.83019122154066,118.95059180154017,113.33886547600827,113.33749163275004,122.98514009797893,128.65974319056608,122.48257099250635,126.64040259356173,125.07842200034666,113.33382855945467,120.49726919431029,111.70243153276654,111.19854819935829,114.22807586511324,118.3174179240345,112.7459488538907,110.67525940211911,117.57351975392788,112.00908578323373,123.17059305210915,126.2969856655739,107.23974181892724,127.70200072331264,117.91294288494429,132.2127892680363,102.73361099007501,110.13643392856919,125.59480211570484,118.64595352626434
114.29524769361352,112.50464041630417,105.01575931583889,107.99169774856375,117.10384242976846,127.75283153964764,101.6314218196858,113.62672305609411,94.9294198429669,119.67291029044208,116.26764904460528,132.21158287603322,123.43867644354671,114.30501781036848,125.62480335733241,116.22654631120196,123.4709024895819,135.91046816018311,111.96984677000485,114.51702188514899,130.70180738429997,120.50899232125317,120.21764842622521,112.60863164401468,112.75922580928248,119.48439610236946,130.82826574503213,124.85654751858871,127.90960063738396,124.79128503220365,109.701485029692,124.73677739916302,110.89925209323772,111.361732783866,114.63038956267135,117.8735787111717,115.71360789227364,110.08478852974746,118.6658406524916,113.35685706984215,121.96921840769312,123.79663326401109,106.48594551949122,126.29371137470925,118.8654752455888,126.0849972073764,101.93260816638535,106.81878230563404,123.39813188211622,118.30254371254829
111.58661716061472,111.09203256564324,102.78351086430236,109.08445418253115,115.18835284163505,129.73106885465475,100.34272067132649,115.29574518028676,94.06109625853748,118.90277506592024,117.80581293260953,137.20543764908433,122.53363730792633,115.64176785490692,127.15855930133733,115.94681008395361,121.50232042034742,133.2501471455691,113.550491730234,113.02628541038416,132.42278484240842,125.14228971834847,121.55004887854034,110.52368744854529,111.02385590623963,120.34087105376214,129.77604086580243,120.50184507326327,129.96264121637012,123.80880385141924,110.68940081763385,125.44551062298471,113.11097960581317,107.15519449491364,114.97645823763246,115.50837623117191,113.15010841873217,109.28458378355738,119.79044124659796,113.76090449510349,123.42024193550729,121.66761850828766,107.21480798391319,123.60788911630577,118.98807846824448,120.76946925127749,104.36744428590114,104.2800476395132,121.73562091939638,119.48772909224137
112.09345166721941,112.82454392620136,101.87753589482385,108.00984820149921,114.90042704175606,131.18452289189153,99.70212042504411,113.20973882623886,94.42417555850089,118.77773510633901,121.9800429407182,133.96491330712254,120.51481553230587,115.26074617819364,129.00655675645893,115.40700292156545,120.91938299522437,134.2820541016972,111.60720001304728,112.3884180884237,131.76295658393454,124.81047224279806,120.24807734168016,109.09718884438756,112.12824641349788,117.38147348309505,133.081318596538,117.72213734516998,128.9319353583719,127.21252113463157,111.86500601457602,126.41542354073236,112.30014715121085,110.62076096023804,110.45304655666477,112.8377738606112,115.89554504452735,109.34939017003211,119.4350862577683,112.84327006748323,124.2053848741527,119.5205076087907,110.3207697878522,123.67469530977615,119.25958647939008,119.10560269343165,104.00636169953349,104.36334590245225,120.18621037531825,115.93950579402684
112.22107505429916,112.04596330644756,99.11868031932391,107.76891037092985,114.63932538341643,129.9307746735146,100.8025396229308,113.87614741635794,95.52799124838845,116.42096437718294,121.21381390229634,136.21916291989268,120.8632287765959,115.73713085521965,126.71157059053532,118.55494256864958,122.48457353673852,135.64834827273782,110.68725656566691,112.08701622412585,131.16260600281944,122.50572114124391,121.70961009667933,111.58566100286882,108.030604785618,120.2603089773514,131.32388647111685,116.869709378411,131.02089720048963,126.32149520723554,109.49927463181248,127.88440629434093,111.31475366909842,107.8931822347706,110.22388211002989,111.78030282559727,113.20259204343076,109.47848000374897,121.51406569596703,114.38628254166352,120.79986905614673,119.90342977006483,110.11287005316252,122.51298355231744,122.74834120340027,116.90388192844378,102.0607497295486,102.62653484204043,120.89789355930174,118.98899135320845
111.25826948122129,110.45791695809467,100.22374185126982,106.27589563694043,116.66533035961851,130.881112449571,98.513219786883,112.11875640222316,96.4707579328473,116.17927296059344,120.14128151434959,138.19955293240164,119.20372372140402,115.92911936103796,124.25829417097063,121.27588264100656,121.57177910007715,136.61801681745146,111.76874934376023,108.196572231013,129.35641011686877,118.40558745540454,121.25610724464141,110.69639549556427,105.39756670009297,123.01588109652005,131.7231717175939,119.66689999465885,128.63183650841896,132.31568056844065,109.42793659067915,130.51178228403262,108.53937153845418,108.56953202710226,108.80791704989726,114.01933406747933,115.88347034567322,110.16543867989441,121.99176210111462,112.06859925200108,118.58763638112715,115.72889984310001,108.99291393986307,121.49784986732783,122.4281149332301,116.74363414993292,103.35535923633986,104.20143105690809,123.05622115416153,117.57074841344495
109.98896921982549,112.00230839595649,98.38259095272561,105.85199498392788,117.58956330072084,128.58710890821283,99.91989489104596,113.42976441065386,96.47430710813194,115.4916112236712,118.41321736484046,138.65364542756197,119.17518222705432,114.9560991819109,124.1518723135368,117.57728694505462,120.47639966513609,138.91022125612164,114.13797930573925,108.12750162121202,129.31263323405784,119.80283539746989,118.72449151790272,108.57788353493184,106.2023899946124,120.99472105661144,135.2519658127682,114.58058863474156,130.8014549578765,131.28995749225413,110.4160654892905,131.495585123983,112.91544750909782,108.85594444612086,109.97695644282916,112.74998193017792,117.11269855935014,112.05615676215699,118.39602420747843,108.61343818770177,118.17400058648789,114.32553645810525,108.6399581748606,122.78999526438311,122.30043173670808,115.70834212302313,105.0857093437854,104.40350115436951,122.80238518515701,115.90276441071747
109.02552587165577,113.6932025523732,99.43148290852363,108.26928932018764,114.55722290389727,126.27287282789412,103.66057712658214,111.34520580726468,100.00112252971799,115.7430069103062,114.80442605036872,138.6597645518606,117.3050782912257,112.19148723636087,124.69124649814083,116.76334716414141,123.45601832681176,142.326743458002,112.19033254536444,109.41732391284789,131.16069354010105,118.06985561187355,120.23604596185386,106.56190671740073,105.65151937247659,118.83351617430851,133.50671394135753,115.17833496677031,131.38207968713368,133.69192904901774,111.01242126573361,133.55262270096867,110.98977637202115,111.21398744594072,110.28106980845745,113.0032555724614,117.51132146810086,110.73851032697094,117.05601165285917,107.85365076566615,120.48838337917007,114.75334903018162,107.66216656268035,121.9129815479308,121.93977017256321,114.911672073959,109.6204752985093,106.11155812241323,123.13423899687274,119.13959207786253
109.34667228089198,113.37698074009573,99.98544730736047,107.73258166966646,117.18838249530972,123.08658216337756,102.14924171641158,112.84666765567627,101.50134850105805,113.19253401366596,114.30516765733557,139.27912758894539,116.72404589496423,114.48726807864169,123.27890132729787,117.22469572973891,125.35448526973857,144.66214971027514,110.16885973538336,111.73189573485703,131.2247524872598,121.93892068127786,117.43695677597097,106.53120647226676,105.25216312127749,119.39338893130449,133.26391326494868,115.95573532546575,129.98517685242632,133.30837981003168,111.33455342207284,129.844989126905,109.68401055481014,111.70668858985094,110.10727630716936,113.14564863838655,117.80629603159707,113.10175167126066,117.4244925316761,108.00241376002973,120.9167879418481,115.10738294691119,105.17724242747393,124.44539222215842,122.05804611520962,116.24426146692512,110.29427554468914,107.3208943655204,124.34743653520123,118.43407903390553
108.07480756982402,112.59011635675168,103.97148597176457,109.26999031128783,115.31363079020922,125.92814173586824,102.24065697822569,114.20777060579873,100.2424888088346,112.59448838990338,112.27312565020652,143.66383172103048,116.1690945926752,110.11125330803965,125.90151331182172,118.82580143063367,124.8545073744854,144.37927443243174,109.73833563999571,113.80561252200721,130.82041155416402,120.97695189380138,116.63396193230221,106.28812601881373,106.14688104332015,117.14173489923029,134.13772468458876,118.82237713115855,131.4665050616789,137.43354755037808,110.23774724384292,127.71593398249736,111.42151836714278,112.26631785545395,112.13674533201527,111.29573243879445,117.46065493224961,113.03603342785958,116.92439475717228,106.94970158827212,118.84852864319136,117.07102021427696,105.17318315102163,128.46131282051223,122.71784751062711,119.95014847618235,109.08614838964239,106.97472675940752,124.33707089840028,119.33379236840466
106.89033084313783,112.10369291860167,104.48632637703246,107.47938020367503,115.79769688677243,122.97500482140602,102.6310517694131,112.99631362871078,98.8779778898248,116.90577297378304,111.99135001225156,143.88891490650295,119.7723437925103,109.06796975321264,123.55048511010125,120.00967967861102,124.40391324888034,145.4424189405169,110.71864330165283,113.63997385622909,133.0980759089384,116.13108549377502,115.675127561905,108.11535843109984,105.22221329381682,116.86667395256795,133.35370861387662,121.49640409681508,130.99435436045877,136.75473136163689,110.62919898534972,126.217973056015,113.7880716646711,112.10016717986944,109.96756270327946,112.26169821396554,119.45026499644709,111.16269012742355,117.62488205128449,108.47886835611207,119.82486133694209,118.89034799625897,105.41761310882566,125.15972372901504,127.3645275365475,120.46864921578263,107.53937978983132,105.31064485215293,123.72778742314061,115.32970720603842
110.62340388052561,113.80213155153655,103.60279122338774,108.40843665100766,114.79169649582683,119.99389227931806,100.84022064450865,111.99084211875916,101.97382929099156,115.57089216564003,112.20757987830586,143.15566386197503,121.91837669237962,111.80196963519619,124.59032838550377,121.36663739766047,125.83351671868587,146.24705217101734,110.02474123315456,115.52012270364455,135.73165491308478,115.3881653601053,116.66252659934801,105.7551155979739,105.6072662068187,116.23653307291286,130.24409864204085,120.57223155319147,130.3261573472592,136.21602013108267,110.20649807114675,127.94953095552867,111.68545608174146,115.3400960110907,106.11611454990614,110.39987110698077,121.81903248898969,110.33308762703247,114.73058999874857,105.4264607143356,118.20036827448662,117.57194908922365,105.88448447229027,121.69416880652402,125.48714583849515,121.4518843492244,103.30722477266916,105.93185872750954,124.4420955364479,116.19835532003627
108.32815602867149,112.62590680751696,101.5898707307522,107.93980486726693,115.05231799024453,119.2418755011798,98.72716597792896,111.99752824979946,101.92189335832036,114.73551732635497,114.71326726005442,145.61761965451714,120.3873643759596,110.36241030891843,124.8692304174194,121.79122737877638,126.17478258512403,149.02814069776963,110.08946123935075,117.26160731952088,139.70303840781025,116.11492206275068,116.57565847638166,105.6668629033848,103.58405684770442,115.3515865065013,129.07425440420462,118.81760669711964,128.87912911345632,137.91666640339687,109.53477987928935,125.00760908081274,111.24150084130352,120.57608683479823,107.26392198081692,113.09895297733489,116.12863743517131,110.90180911144633,116.94959219562614,106.49420118054849,120.11362046082493,116.83297163849026,105.00303654398607,122.10921202993052,123.39133452404062,118.92200326035784,104.72676157336514,105.00953863175702,124.57742971901932,113.84465804960988
107.95938688062814,113.28262881269701,104.41451276377236,107.03040771774185,112.91924990117862,119.77156209565165,100.29743111075314,112.89137849584624,104.12447529283001,115.3084095000247,113.929975176798,146.37728735457608,118.35585074947664,106.9947326556492,123.32440122001496,121.48996038782147,127.94509746036006,149.22707525124775,109.25728280356607,120.87467347412128,139.73845746584612,120.52374715050364,116.1079328345556,107.79870718453759,105.57588331611407,116.95439478488247,129.05681514759561,117.48936447836552,132.16578805415395,139.21381823217968,108.81213612318618,124.84804275957113,112.28716035919551,117.89832057300836,108.34006089912732,115.79347416450236,116.25838439717761,113.43102450578374,115.37427829870866,105.7102644291685,119.80892842401802,118.31991982519531,105.42132041151672,118.75809843909786,121.85909925470804,119.63417629923858,103.3531937785162,101.91560507010541,125.89504136953808,114.16454864714572
110.30465426525309,112.24543812161241,107.33274958387412,107.07554563890884,112.34222317695635,124.38112881085394,98.85465467336697,109.66321621905391,109.01879571514081,115.56950997943594,113.38852970979224,146.3108791641013,115.94190920440231,105.5897245768941,121.28883115043818,122.11435235314426,128.279800669028,149.99582344050017,109.49358947955596,121.87672327472472,138.15982013577377,121.36348799790909,118.41411023286322,107.8946312139214,104.02393480684388,117.13169844236259,132.59267722108922,118.52073098495921,135.90163599897303,138.29175796598682,108.24946625710673,122.42569050781337,113.16736371967293,115.30430717565035,109.55970727358651,112.57474463329886,116.96412447183374,115.08601445455028,117.14056761839922,106.01573587576604,118.14650404483983,115.42911492674938,104.00094830117186,120.29319079923714,123.82970558037407,121.31889825021409,105.75770547772002,104.51115158824524,123.85708741236984,116.83288845506067
109.91041092155683,114.07777822439701,106.61403150505,106.68939656263508,112.43110878887357,126.79467381443145,95.8337494307542,110.4971513389145,109.7535230765734,115.0941616807083,109.52371361226828,142.979310535622,117.95682230012969,105.86703463404666,124.88655000540348,121.45918674105528,127.75770357821577,145.81504526235435,108.79175474446089,120.9008384184682,135.15940243018463,122.42327397035302,115.85633855581746,107.80645995397906,102.38996781532734,117.78134043434068,133.67690969409222,113.69337459859742,140.05832832488585,140.84948223933642,108.55543738291537,122.1353090299539,112.05394357013586,113.45713836699963,109.09956651917761,112.37867265374948,117.3597166653282,114.46125355881502,118.12141191158688,105.4138070543107,114.74788017416542,113.38353800546933,102.20385914663456,120.83050895849831,128.10139555765295,120.60965247313204,106.60348289381868,105.21346756662587,126.89185209178444,117.48443328972884
110.96579243530844,114.03581648934394,108.47906792672107,106.41927929740707,112.68194273153959,124.84170496735236,96.66516185600447,110.1652018948701,108.84994461100217,117.3315190419021,112.26936010713615,144.92409859490684,119.60402763379533,105.47428941830022,122.57931843407701,121.20869697652445,128.35823313659347,143.06044921545572,109.27277069373406,120.67642041587956,135.45748990520372,123.38290014315575,117.09546066174899,106.37211446122004,103.8106434442714,115.65491551633959,128.89435155006274,117.05713447458157,140.55060265049158,139.74227936917512,108.33374673103097,124.00554965203585,115.23757244246758,112.10883211642239,106.42691789005278,111.66616156624748,116.71785660403144,116.8501933175897,119.13998505673577,103.00902619045846,115.12069196842312,115.61397648137579,103.60931383409094,122.29469658635432,128.09150704996867,123.03898119080131,104.3051647295046,105.42911403441542,124.61935179127357,119.36690528027967
110.58929116232058,114.76131811061767,110.99244461381825,108.34483181563459,115.72391693468379,124.41078373340957,96.45454091763928,108.52280627416445,112.31621341108458,116.07111820161819,113.6748909485736,141.99605983077228,120.02099957556904,105.63304081278848,120.74240296675148,119.81045450201987,123.03031005429922,142.5054240188823,110.47469653500625,119.70163552533538,133.5492937279746,124.45469916280783,119.5133296089735,105.9292324057894,104.58399206901173,111.81900909391918,130.4798147819915,117.94107572743657,143.207041217673,138.93944386819481,106.83162937217519,123.61227804143773,115.54946660025406,109.68709540742269,104.84634074916922,110.19271173049367,116.35069770195064,118.68668939757444,119.35584117369488,106.02947447141713,115.8537915019546,116.34999238160725,101.27715129166042,120.2537857229811,126.18143663637045,123.34636523863874,104.43825948292863,103.00136759753175,128.4155288906114,118.62605472270087
111.45559464581558,112.9281260859707,111.5957955484414,108.80136155571097,115.47310884773306,123.27915713194899,96.053994219404,109.29764739379047,115.25482445374362,115.63464785136854,112.5575290572171,142.51337249236045,116.60631114124543,106.88180349736055,121.06786940543186,121.26231188511727,118.939289972675,145.4047232651434,109.8018460305053,121.6806680943406,131.99525526137114,123.85136380661369,117.08720744010554,104.40419770925585,102.78484317559602,111.48361389998297,129.56517492377137,123.6341706298234,143.8365576615024,139.8164663222958,105.91532630532575,124.8117454043439,114.61058148206027,111.28905026620012,105.89579692742885,111.34918605993454,114.95318895463035,114.60730952470642,118.08404529574425,105.24483947059568,115.57578652617259,113.66350032490799,100.95943735875206,120.95307214676046,126.38283577930537,125.62987838923368,102.70405715685997,103.81204570403736,125.33829327134013,115.75552021558687
112.90462825900582,110.37769885767115,110.54012847778316,106.41893025848593,113.24916051686208,118.462973324367,94.29439202307165,108.28572173803616,118.02078993870525,115.7426483231323,114.28496036032227,144.51956531306163,115.87384647222613,109.39798247069541,118.96522656362454,121.26622370684966,118.19870888390192,142.82459306129903,110.52999910621683,120.59265097049695,132.70655314599833,126.74942121918764,116.60483712031468,105.00268253599789,103.38998757230904,112.59339011407484,129.78765612188093,124.96407265150697,143.0567370869548,136.33012210490986,108.20835656704416,126.8097082527416,116.61928000237545,109.45864164944766,103.65382387187107,113.75899044484153,112.27047910268156,115.16391429699368,120.8570127345001,103.88479791316895,113.0839670483923,116.91087101779146,99.86011529082906,120.72279174738267,126.61491839534472,123.51904627086193,102.1240462407209,105.4962406125417,127.39270070839656,113.75612770797576
112.61088485958743,113.82796152745492,108.90484969241004,107.81057308006557,113.09111289148471,121.8041693172348,94.67043659286165,107.36981488072553,118.5274873543027,113.70562963756457,114.68966661260411,144.33866555780014,117.88220095051352,109.95160212284497,121.50703116332595,122.36435766637787,119.60390024828374,142.9662924847678,110.34673162134285,121.17937618167473,135.44160359823005,130.5956525789999,121.02797276468553,107.10420513301484,106.76252524108358,110.46272040721954,129.44653012141558,126.60889400779509,143.42383971720488,137.4566756956758,104.66553954431585,122.71189657036106,117.08030370670735,111.91042178807851,105.09366125881576,111.42843711932497,115.33735802149104,117.80780436467828,123.2663392293358,104.47639795794127,112.9417885641098,117.40653897383842,100.55959866350206,121.79885436449808,128.22994261941594,122.95282920519081,101.94229393895073,106.07555751313298,129.33150875205774,115.00939845733505
112.78174979512444,112.8845345260626,107.50074005928418,108.30715324351759,111.81075423986974,123.77737456896463,92.82185989436331,108.84536438692625,120.17399472999143,114.89808927330549,114.33832790940008,147.24519494107946,117.00304909238206,111.4994125711845,119.07208232064816,123.02622039723695,122.46273754842603,138.39868500770433,111.75088469853104,121.10197231438711,133.97575503176702,130.35894260640464,120.26632388991074,107.0722611463444,104.46211936045647,108.75979859592279,135.05162476133248,128.38070183393006,141.2396741660948,138.36573247462098,106.54157123768272,124.0923003010837,118.59162914538257,113.35454999241523,105.69227778341144,111.57854874866854,114.33589958640471,116.68154484779222,123.51819933765658,102.91522554103692,110.75449419484907,117.51227715540242,101.88467401780872,120.77992489619929,129.5974730626535,120.95268160743883,104.06823516436359,104.99448254720566,128.29783180598355,119.44893104375349
112.87152626709961,112.55281736318338,107.30019145636412,113.0610738541839,111.56323459371373,123.46771252133502,91.7882397474708,108.15956826085912,122.32769387413434,112.98538692473053,115.84984322284348,141.60612440918007,113.19356496941795,112.14201182427021,122.04279756319848,124.23677957249826,122.9271709518303,140.0991190500203,110.00981563685691,119.68837239987869,130.11011518258553,128.74222292961232,119.86033676339386,106.35538427436335,103.40499615807205,106.47509270831792,135.25163129197486,131.7976500024975,139.84742489911005,135.29389073667676,106.82185837213177,125.10016691977368,118.35080405244933,111.8497568396116,106.18501758355562,112.10316741512574,111.27143515287342,116.00520656204432,123.05368862173509,101.23265922274634,112.28548698996224,116.80132218794952,101.23802569787074,124.53529528349505,128.69316869710389,120.11168017251832,104.7042226648311,101.95071677585409,125.20904219557659,120.6935613836063
113.13429098525577,113.39464117393321,105.20989629519002,113.25659983521368,109.33728430255546,125.00931768229525,93.4245480622235,109.28023880787363,124.52140154742723,112.44259881158112,116.25676955812568,143.0016585197328,114.96207419107593,111.87620207682596,120.58558153083342,122.17175664744838,126.62475384113002,141.01411765428224,109.8454228396046,118.86429321373717,132.28613354038302,126.4783735331173,118.97649115054449,107.44906908764091,102.10307101962891,108.06200437183132,136.02867850920396,137.40546856767733,140.06449624414194,137.2305766999579,105.29807324443536,125.83981742555169,118.14499630741004,108.48057533326579,105.89066938857391,112.56502536191194,115.10369604390989,113.96388598294367,123.58700443696168,102.4651424216847,111.70988909064255,116.91256812975706,101.43439603499698,125.81044844666413,128.10719850018063,118.99943743231388,105.39617079133484,102.919258955779,122.71026283423629,121.21039849742877
114.37638448871205,113.23346648017426,106.29843974276586,115.36991198692779,108.23974534220906,121.76493894629131,91.13054086316185,109.78982378810986,123.71312691433131,109.1482434972597,115.03119542962193,141.1376735004491,115.53961109462306,110.28634617712008,120.52420116081191,121.0139313136244,126.44927418728554,141.73011616502268,106.11011664933812,121.06395972596435,130.0466656390904,128.99884339978246,120.37498952029051,108.56831041772016,101.89325981868669,107.91620885702721,136.41809928132858,136.63270328821653,141.8405451900219,139.08679325470365,107.16220491752091,123.1965384686203,117.45570604844843,111.49098928058874,107.74402220657011,112.57169269915526,117.52258494209167,113.42975088010442,122.35193266079544,103.67892261442665,111.1815032802706,115.68206289624044,100.19980846707986,124.58606387916184,128.2265900306157,119.36494690030645,106.65171128453568,104.44444062685807,124.14326983308868,120.34480766151165
112.01785777111466,112.95164328765122,108.56819646794966,113.78949449196048,110.24964253314671,124.5818425414515,92.80552455417696,113.34644355418463,125.3188361549074,109.72224142393087,115.61019914728978,139.32616346257757,114.91894971744837,110.38960523922465,119.37588797385615,123.58196967854255,123.69196534765676,139.60746065457158,105.63476785049666,120.09667683789296,129.9017910870505,129.3487185137135,120.34943205854741,109.37928151209927,99.773756504071,107.52205884496756,137.81039075606844,137.29962402445418,139.53836811889676,136.7857496387957,106.0187118020807,125.68269300746259,116.73859495714207,112.36787791998695,106.77965937472848,113.58296914691823,120.0183411648778,114.76641757284749,122.3902209820909,102.25614476205773,110.54621863283225,113.40931818427687,99.34118693113628,125.55325157421564,125.94016463468371,117.78762481785012,103.7512033501386,101.79577113997767,122.6011854633424,121.74915385610299
112.88255884393224,111.33021496572182,107.54143171769606,110.94910110126332,109.74057024990394,125.61839582426565,92.71279575034241,113.56361355119482,128.08976532707885,108.62409946493764,116.5509551713273,138.6248277907461,115.44971186620597,109.43849421506883,119.2905527568562,120.99628266411445,125.26859976435901,138.9350315377102,105.85382111755297,121.45935673375526,131.086323260992,131.25952295325794,122.83251240374346,109.00560676234024,101.46515933259586,106.74801217390954,138.75515358768797,136.0419235373302,137.90720761312798,134.92985452602161,105.10429888159842,126.38194549685838,117.49584602281568,110.78578557305312,106.12340620864624,115.99197952117791,119.25987133040738,114.16251286974313,124.78223421073187,101.65376555349462,110.37306467340647,113.93304870167121,98.5450464628227,122.95596565037879,127.07876914875587,117.6145113596174,102.95172544672758,98.16167460850004,121.4716993033016,123.95859497864558
111.96005752509953,111.58106115110142,109.1755951978582,110.80826607737679,107.11098815154992,123.34857655986885,93.77939112063979,111.85161986598175,128.92940680204796,106.25680849788624,118.92559665067269,138.8774929588759,116.98078534971879,107.6149978167273,117.81120434833953,121.1999476966378,126.30683647504331,138.43457336682732,104.93135177239421,120.45251837822693,132.10298536492093,130.6314245498879,121.58863871424765,108.6020602559158,103.6905175397747,106.15134158238409,136.86012588471897,135.8327092764911,139.32361711994704,134.3118748545097,105.10527350906277,126.74299781240933,117.95015961500457,110.37146110131647,104.8965642113178,113.6835086924615,118.10799345848866,114.79602896297828,125.32006932397405,99.355948850177,107.78788907797494,115.09221467846633,97.52386437209867,122.66349139677747,126.04257700393627,118.89902299689537,100.53506514906555,101.03266034581326,123.64719754064153,123.76126918371787
112.55574341756734,111.28620405015458,108.24236444471993,110.52352444397089,107.13460668734959,123.92722901935538,91.56646466846917,108.26317499819811,128.23313477115835,108.312893038887,118.99195819853388,135.320827051679,117.88782642879218,108.08160285644905,119.84398352933518,118.45138014713162,127.93034334089485,135.84326544902123,104.218683155763,122.21230823812482,137.0639265626389,129.36779208674065,121.47023154738396,107.82568574911753,102.15267608559888,106.02833422719559,138.95790001085444,139.2266420065175,139.73284589061402,134.9049680930634,104.91680870060384,128.92300060924146,117.24188133962159,111.13861082258704,101.51517251423834,111.41126560300096,113.90038245898569,116.66670160924733,126.14865157312809,100.40020978789485,105.7809300526116,113.24707627518933,97.33905931039864,125.29334640413856,127.51358346241183,119.80028637392266,101.51238774440982,102.14084240684876,126.89123674830793,124.90529420491458
108.95822059155851,109.77819111519212,111.00358511795373,110.812463743787,103.94561881160797,120.69482945993823,92.31631750527345,110.28169615601676,129.3295359562014,109.33853844995453,120.29716957174261,135.8040978925615,116.25740031304929,106.17217695437405,121.07440190073739,119.3320630612883,122.7109279101588,138.85629999253743,104.0864896187799,118.66440462313619,137.05664709864618,130.10748064037182,122.23460649047061,106.11834122806266,101.88405170087269,107.17121828386735,140.3241391496609,142.0514323334757,139.24153704504414,134.434594202052,101.8894402291551,126.31968478663134,118.19240643145737,113.00743626259514,100.47002066815682,108.84476780188024,112.16840785562422,116.54092450422309,125.92970922261497,100.46247445944464,106.68193036785522,113.48273093462755,96.17551511908226,126.29273170304656,126.79644447174279,119.37315343177795,102.33496311497501,100.05893353683621,127.1180094915679,126.01331004457509
106.63838097366505,107.76697301665023,111.58108375093768,111.65597144148371,102.04488143297853,121.80485532041588,93.02404894699151,109.44050582175568,131.8224456388503,108.39880517742114,120.15434077904162,136.6659019286315,115.39562876495562,104.68754718815595,121.87697550818326,122.33511329759463,124.27344771842496,138.00165761755744,103.36104779178554,116.18455147242845,138.28251886564468,133.7669150135102,120.96973609334924,106.85384153106831,101.31699194690187,107.29784873799375,141.0335147783272,138.1113629076223,142.8331804460708,133.49631881836112,103.58721101456855,124.45470487803802,119.57759221774357,113.10187968073313,97.92341124391791,108.35738187867575,115.32762191931957,116.68888541277114,127.07575483950784,101.35366212665063,106.54067309489245,113.27015938574077,99.93905101791734,127.37001519140276,127.58971900612364,120.49472647996119,103.58493331367863,100.3133547671816,128.42427083446083,127.31970855350892
106.96316710924242,105.12037729444766,109.23313831631616,109.0734761443861,101.13377591348721,123.29728013139703,93.81234787141263,113.14178825749882,132.52626774112207,108.86201623507733,118.84555768877769,137.3201621057828,113.52706250825663,104.96012108951712,122.2231435816805,122.06193267579263,124.29570398725257,138.93419638934472,101.8345626505255,113.51882972929037,138.94710277158265,133.220838579399,122.08586565093789,110.18303806035533,101.78406707004254,107.16131443267044,140.88674433253433,136.60661276165484,144.91156151121635,134.92792799384193,106.25539443477417,123.25701891537432,119.98622511549202,111.5517216090599,98.56698037409299,106.77874852910713,116.37210553371334,117.60728193492758,122.20494730711167,100.95857941954138,107.96327482433105,113.71846401138812,98.67696852176432,127.15073219204751,127.11673521435925,120.05784378755108,104.61542701590365,99.39413687365168,130.41191396298564,124.93646412919458
106.17909041149497,104.46074886392661,110.58341953726685,110.23574904115166,100.8631439437122,125.51890518407308,95.44087175449532,111.51028514707458,134.0006724645891,110.03491461065893,117.33848669302603,136.73968644080205,113.6050997190356,103.40146155321543,122.01210271236904,120.36646818596205,122.10120495805019,137.53118405047394,103.01416815721468,114.25598477776198,137.57738314104583,129.2138120470803,121.7547656770768,111.15003992472803,103.52542236273626,110.6058477549382,143.75554616981742,135.59884430454042,139.84845988628965,135.62248235251369,107.97093082998141,121.06361197843685,119.14610493856463,111.71006711424255,99.11508565605571,106.5693788527509,114.60887067692711,117.1380000977488,119.19780361355478,102.17237670772731,107.03536149329781,114.59714550823698,97.77597484579822,130.49719069194637,128.22263679343504,118.62088338122477,103.73909737537707,99.97652344891516,127.8001728202402,122.02311040786816
106.79577745023532,108.7865989457923,113.31742330525009,108.85309526307422,101.01798952798686,122.85625530113224,95.85976788186265,110.79852109933103,135.27955241766847,111.17778675588339,117.33433815984965,134.14924057485356,115.62428341886731,103.26164031851476,120.925001766424,122.39483483437313,125.69266762717153,134.449751719526,102.27376389659798,114.07440466414171,142.66701040239477,129.97253500846512,117.16384031546319,111.0470839984523,102.59370909864181,110.35778252654357,143.7038140397851,136.60396739376836,140.0720423781616,137.52548634921405,109.10302851151826,118.54432720403022,119.89187380435969,109.20544400978677,99.36747667476669,108.9659072109633,114.54398039270531,119.49815332200448,119.43615392075527,102.66743432368463,106.64607753742733,115.85538534106843,98.58916494899857,125.76490369497971,127.31247535372707,119.54262662193126,104.50025057854853,99.96561087793785,125.4299454667647,119.10759016043787
107.68424080635202,107.33873166345019,112.98988221290661,111.32718387497057,102.8681768397248,121.22437624133788,94.56182478295015,112.4174650721238,137.84312090214303,109.41653405892744,118.3381247923704,134.63606735059938,111.57569272925085,104.32445257497923,119.94567633094238,123.25174685886502,126.07011125114656,138.30422138664227,100.06083158754898,114.28030476912507,143.63842018196772,129.94416599721384,120.77671799389522,109.76042165678008,102.66503230713181,110.17803481640632,147.41349768160399,137.87834919244656,143.08355241923954,135.9133992892058,111.13256420984966,120.73249978274191,121.74342538172073,110.05075753257555,99.89035364751837,108.79982857380114,112.73893215000002,118.96162796017339,118.345221483932,100.5891055882913,106.07100238873848,116.74912656084726,96.20693849290602,122.23185326441335,127.74318165907184,119.2855233712897,103.84878385777591,100.76673125824206,127.1628508354316,122.21096244522637
104.89416006907474,109.66374096856738,113.13053917258759,110.61420740703238,98.8134782943293,120.93604157852857,94.42257211842569,110.89245951203401,140.2958131652549,110.14730463766348,120.00991649682179,135.73230862949939,113.10277285092221,105.34382866229582,120.05202281614498,125.87183250259699,128.0400838592359,139.08135680586545,98.70960541170265,116.33036561353816,145.23983931420358,133.12929969397396,121.36159802335642,110.02839457897532,102.19550369045092,107.7490713224123,149.4936119337063,135.14222517893685,145.86191862947612,135.18555392950586,111.36813445139921,120.7364818390435,122.11713898203716,108.74610844915877,101.79610692943146,108.43944475820139,111.07476547161923,117.61149700664377,118.7866933835703,99.65316702306899,105.98115859208022,116.4050908510037,97.93725636451636,121.7042810742204,128.15178981123796,120.29221538832164,104.63227953639,98.57868107122312,128.7704660010872,125.84200339081242
104.16342938928915,110.58369589225869,116.37973414262747,110.3598852955181,96.6332301117489,119.48602178171033,94.34617685477836,105.99582988877074,140.57484714225035,107.96836814461837,118.99672081768075,136.9174721315473,111.64975289206174,107.67909020206183,120.31966656129357,127.24701762675879,127.06594076762015,138.3469227887312,98.85266027158116,116.30346614120343,145.13216046901783,132.94589311939194,120.39078800196158,110.57117425829234,100.81227871539713,107.71545067121181,149.18406612087105,130.35367479228765,143.91112364283143,133.39818262614617,111.92083544616456,121.53510657524976,123.63709220344869,106.76531525872473,103.80598395121021,107.88020224743327,111.94427083676287,120.60368187461901,118.89431141294259,100.20833886862273,104.7523783490653,115.27267446722301,100.13229323750835,124.25413483372397,132.15811253665103,121.75171105364235,105.90885130885312,100.10501969831728,135.2016329287163,130.3824162548567
105.80793242083968,110.6039959596096,115.53732836961666,109.22840715422048,95.82254921086589,121.8133349463151,92.86565255849032,105.46488855627548,139.2458721384775,107.49791505171362,121.46068137631472,139.21847545016428,111.03871493226202,105.53767636511087,117.76477505358389,126.33771743424246,132.8625387426634,137.04552542950697,94.18582845775275,120.30561846752205,143.85363895991884,136.20526057801925,123.1556032728114,112.34778715362381,100.63800015633572,108.05955221425259,148.52721054394144,131.97024074972325,144.3902809087448,131.0659705178189,115.4607253420488,122.78967760718228,120.16081341802051,107.1502472849908,101.93263123578488,109.27053717941403,112.35866118550194,119.22499619791269,120.48360882918178,100.04295647335924,105.46571343008397,115.97651945016888,100.77254867125247,126.14768993149218,132.39719833767435,124.42461847931065,106.26575826251559,100.3465176888016,131.84724911151125,130.43258080350105
102.63456397729507,111.15925778400694,117.27195472169083,108.80630396252168,97.97733102210078,118.18520876962607,92.4243117428461,106.1823183137436,141.07592752511923,106.97846975945394,121.82875821313078,139.8801397646691,110.10970099122953,104.72811124055505,116.99241678435588,125.34451432535481,132.92999632456218,139.8425544906583,91.27515716149136,117.90352360542344,140.48963757069149,138.87823824070412,122.04984151536675,114.17917506710627,97.88658851775163,105.26474517998975,150.15652325806133,131.5530841280414,142.06964064888868,132.8898916872631,114.05644068464998,124.24251854843492,123.54126520930103,104.63647820860719,101.82409781235836,109.61693771067432,111.58848459000302,121.03466349210342,122.19569835695516,102.36793660731551,103.68754818360618,114.22449017488039,100.2228013585686,120.27984105007327,130.07918047956224,124.82194694995758,106.85703267653606,102.18303023892146,128.46533420381584,127.89530760499035
102.57973060490738,111.6694830197946,113.59416611798733,108.65798066577591,96.46916125339361,117.21772224448594,92.29154199735257,107.78449450686907,140.6756574251289,106.25856377648756,120.32480824767866,141.54430117130738,107.5655583384675,104.6155916760231,121.08915581103156,122.70042665501519,130.0974565995827,141.2406422935127,91.31301082955873,119.37785885031073,138.68358949364406,138.632216540669,125.10671276718985,115.7218190655313,96.96167482479936,104.86969759559595,152.09545846306895,129.59506828607687,142.5314768511172,133.0261630364815,113.56852591777897,123.69796195148933,122.51423869593862,103.34062785535704,105.78595567385118,110.81563256275255,110.54319008250789,121.64154622822083,122.06973534459495,104.9911685830353,103.26419262968629,111.43451329727358,98.02750250533363,122.82635967408058,129.74388851419909,125.21476547866175,106.75679455454026,101.80852245871021,128.64663372534804,125.02611991853692
103.8627068375495,111.60798738619076,113.87595237828229,107.16002795709774,99.92613791954915,114.65697708769851,92.28035402405742,107.95530950638943,140.7009282981857,107.47111323589677,118.40857634350648,143.22507121910866,103.89593897647445,108.57912591510095,118.83329459166538,122.08526742541092,130.028560193574,142.80382808744173,90.82106479442166,119.24869551997972,140.16834673073723,139.77826152502902,125.92376439983583,117.7903590674138,99.94755945126461,104.60189742044719,152.43099372716966,130.78137748046535,143.97109186566544,135.69212254324043,113.61891803983994,124.03034899778338,120.91699863208467,104.09044152480692,104.77629576574499,111.39943608447831,111.77789177571412,124.2070188055724,121.33726206222823,104.330213494736,102.444717842176,112.93433672521485,97.45443140751144,120.980921789318,129.374066470975,124.9941839651282,106.43258627118813,98.47901167680509,131.25516327522539,125.49121869309806
104.83749119871308,110.59266324661381,114.99623700517351,110.03511239010102,99.52020169728151,113.90617473958004,91.22861758116993,103.01200808207106,139.9759038996684,109.58174290053142,117.47239226274468,147.75901639109134,104.45070315743675,108.67711828317161,121.01315298474664,120.71156416482467,129.39662941040018,141.88725271358564,92.7506127742613,121.48271501070965,142.657525171123,139.7023881201118,125.73858484989569,115.66307421154606,105.45577769585884,104.92478376067315,149.7539070534166,129.17939901440255,144.85907792311787,134.2298360821283,114.01036400707322,125.82634749696093,121.50850870904601,105.27187112619809,105.96663443704422,109.74483278103584,111.83873259385336,126.95131731284765,124.29258794084903,102.02798157074598,103.97413915048256,113.91989838929202,96.69416753782502,120.06473137091699,132.3055317191329,121.52228383683322,107.9950829088407,100.8767968633249,132.29018165583213,124.5505983138823
104.69665090685973,110.97839089921098,114.94361366506499,110.34875037613703,99.14977052115829,114.26409322562778,88.69537216952666,103.82783807509209,136.90158584731847,111.53702090296997,118.894408146165,149.38175189711794,104.87813073555466,110.28883454363455,120.11728541982752,121.65689618158376,126.03742579374213,143.5323098181213,94.71315070216073,121.05911678970799,145.62371807979065,137.9399360529924,129.33581346133687,115.95040931353859,107.37715554171754,103.78837651955183,147.43327894768802,132.0523666781051,145.25758322549302,135.31841254591703,113.76584192284858,123.16720119494589,120.43218694883683,106.48883418825719,107.90433724695082,112.12931847943695,112.45363544313231,129.25634619872943,123.24356048743277,102.71743284150189,102.6508364558427,113.72504678952039,94.1108909713459,118.25989968615093,132.62039935751267,120.01878758728331,108.67694874987166,101.62174068840895,136.34887433448498,129.1011192577995
103.71772740897819,110.51576720412375,112.58640475700133,108.79518126198151,99.09153146935017,113.47841456903373,89.03982382276364,105.55320255636921,135.92870535637246,116.9995260261725,120.30577197051088,148.95744099137156,104.1282135042258,111.68133909143623,123.85599602333248,124.74837285630375,127.71465649197562,142.9469933408144,95.28851383684726,119.45433607353306,148.91886591189606,138.50380516279935,131.82149999966896,117.49387048818843,107.0002894325628,103.74964597125239,145.47221085805683,132.50548579770805,144.3190000521324,138.0832997888248,112.93001897326845,121.27635601566685,117.89051399765835,107.00109784996833,110.6615413630315,113.39471304496777,110.34317673680798,125.97888320970594,126.30250002490091,101.89372083543049,101.60448219592094,116.88796439770442,93.769178061863,119.44215770754907,132.70522182274624,122.03905941027224,110.18750982650282,98.9838830544266,137.40956739525438,130.28282491960988
101.50732848253935,113.61758537003037,111.31805912490074,107.93474674801054,98.03960955072324,109.57876527930289,89.04530177527869,104.5500363530476,136.5324068542591,119.35984810239319,119.84668266324164,147.21321167282807,104.10141616725919,111.91382494078888,125.90127747960018,124.88951485842075,125.31854995421982,146.2141842125894,92.56697574471819,117.31185041574356,146.9176271592291,139.40394726419467,132.28263725679258,118.50891403542676,108.79825862417667,104.1461626199226,142.83297738624253,129.61353264255186,145.00051770219548,137.6033585394834,112.57021553268214,121.55814895159611,118.80354316633549,106.49731728620885,111.26535901920265,112.20917734737714,110.6949864809433,125.82390827025658,129.58199461723657,100.65938880587235,104.15402661912591,120.03758595765157,93.24757771255145,119.10952307683492,131.70063914158388,121.00582936232188,109.79049079526408,99.1254411171561,139.65699717199618,128.9082090568636
102.03115483172124,113.04348237624356,110.27374033084168,105.48822800116506,95.95794545973067,107.11698160893313,89.62106715113909,104.18597172205493,134.49497831852264,122.08322730706207,117.54490312566817,146.52883833264113,102.45390029915646,114.47759984696596,126.55994434233352,121.2637934356091,125.14870829486242,147.63847307644374,94.8768686665871,117.76122948685719,143.31707546697962,139.7053765024048,131.69063888915997,116.47327368558753,109.7108887326692,107.67416865681025,144.3775549610925,128.22394335252568,143.51099630479547,140.86872961599215,111.72374586114127,122.2378104013316,119.19323374093129,105.96810277525456,110.47374101465299,113.13671548910315,111.46521233657928,124.9663982488346,126.79392303528678,101.4522391609975,103.62742925921958,121.67769684663577,94.05256071596317,120.16512177699313,130.52129369703698,121.4358755289845,110.68085787747707,99.83323553544088,142.2791758886192,126.67724744373497
102.5163431926635,114.73574002154014,110.13999148224177,105.94507174378445,93.50522703433576,107.45790328855242,90.6017033524533,105.70916042816415,133.58543622358255,120.95223728474636,117.55221878122954,144.33605643670447,103.8370598284369,113.9886927470119,125.87382570605345,121.86624103639886,122.69745741824313,148.19065789644833,95.54087331580348,120.32794991527395,143.61792452922867,142.564385067105,129.7366930273888,117.99931801769154,109.16810211982747,105.6599478275211,145.11439926990906,127.63855404456314,146.0492481120644,139.84669507097314,110.5757317056972,121.89624226730106,119.47583870581406,103.90111069825146,107.8326679696793,111.30366417148596,111.03935373948585,124.71409763530544,125.51175765692874,101.10116539418159,102.80122348413471,121.50902589219588,94.55649346934555,119.72925836018169,128.98181357399957,121.77331580498144,114.07231500003894,99.88738601498964,142.87840649369784,127.84503723451354
101.05678925427482,115.24982011432846,106.76116771413753,107.20333348492129,92.38863325972535,105.96495961001881,90.05419073031715,106.3478918348207,133.24374108179776,119.66074167779959,117.34611752089145,146.09444302754662,104.21138395798054,115.91562681290804,129.11682511407682,118.27463355214704,120.84948798881054,144.80644483461853,94.92445332677677,120.06366344242049,144.19755226193732,144.07641311445437,131.45306316511326,115.6343219672934,110.15434261810194,105.00135938698267,142.46374826778484,132.20131568999676,150.77378623345783,141.10045616467102,113.10760575524108,121.82517422284525,118.86743226304216,105.22222048535298,104.62885862646473,108.3414504697726,110.87171018429707,128.64415509376988,123.37537062656406,103.03223301487515,100.68825083445124,119.32645794559235,94.86108839188297,124.96891654149904,126.9581351538652,119.39835189867458,114.39113408943417,101.3770722905102,136.1452480183845,128.61754670642426
102.36700107815992,117.1894964288324,107.03832442417122,105.05856156988132,93.57128226495195,106.13363432701736,90.4032814072349,107.30668591768035,133.68398091279536,119.35651439191899,122.30492885873466,143.04496519718194,101.5443404019498,111.57127017298913,131.4420064816266,120.9051984555894,119.86190340081824,145.99291771361104,96.07379288752693,118.48313291703604,140.46851394567358,148.2537504776512,131.9851284847526,111.80597943034579,110.37117868081094,107.43484838095058,141.0927218640086,131.14893103886007,148.05167687788673,144.4100175116374,113.78245191610573,120.82237085369167,116.5486684993522,102.77352072848167,106.6358529458162,108.40472332766754,114.0621438698333,125.68066849991601,127.33524222735086,102.87434573969813,98.45054004481739,122.01864029471619,95.6022798404127,124.15569029640675,132.73718247432637,118.5159325217614,114.52622401239316,101.36113053773113,133.63138527911215,128.95876297913358
103.74273561570796,115.7079832587609,106.7176975069063,104.33371111103851,92.41478634177727,110.83785801672475,90.77745344619068,106.13247486691503,130.79493917994265,122.46497392368401,120.68797057193595,141.62468193329897,101.26841030720895,112.48497090233823,133.73392917664967,118.5888725404508,121.56826265901124,146.29905512320715,97.73204869289971,120.47910162939145,139.9365851071361,144.7948129583781,128.38996123128112,109.40979590432651,109.28616535310478,106.46309216127604,142.87981665725883,129.66068454692032,150.4966400533919,145.03171389762045,113.39538132671407,121.0349242714664,118.50223628196663,103.73896191347998,110.1565937872728,104.42864594442626,116.01605346399391,126.11415022397149,124.43687534896411,100.7050093693592,100.04014792832716,122.37554324708083,93.94200091362269,121.443510505218,135.54540883420708,120.66969664715351,115.23363806667149,100.68667859541328,134.47757996622045,128.19967808639166
102.03788621223617,116.43586006821789,106.22479560512589,99.81808693834715,90.11074023419876,107.15753421055135,88.54034638852248,104.50830577455496,130.11503012108145,121.80706633300917,117.82745931398934,143.87170345923707,99.98416780294677,113.13010086732857,132.3863736161877,118.99137357386194,123.27835863468722,147.52544580713587,96.0070482247258,119.47313957398897,142.8401349310145,147.853797739637,126.02435534181164,108.66895581716105,109.15873014828304,110.74489415184475,141.64488785056395,130.29546360390177,152.61013804982446,144.44177715368892,113.50745556615531,122.95565689573202,115.46770692894609,103.09894908060653,110.64089729305418,106.25793369424807,113.28827882028887,123.3073812258913,126.03332652253887,98.86583170741645,98.5146890529896,120.6329794679309,94.2781400124449,128.06973907764504,137.17230877821723,123.35597395834515,114.5774438997334,103.74927569057647,135.36006166979251,128.68445153287306
100.92869786206708,116.40366029712867,107.5935191928098,97.75849023714092,89.43349569031814,106.45803550425828,87.24914203469376,101.7120734153405,129.27712985400169,124.58493971823111,114.88097380421942,139.48244965592696,101.3164411770543,111.95251131441314,134.39562653534054,118.97375986269235,120.83024863491758,146.35663750154137,93.68658811391339,122.31112895050482,142.72595103103902,149.5333360989053,124.11798190184243,108.63434924319552,107.83932560196857,111.1641152364607,139.0283362887734,128.2450372589996,156.0288925963131,142.02808967038246,112.69168451729048,122.0134125336483,116.67701941320063,104.47866911690703,109.96162338317572,107.20189237599682,117.14382440394463,122.50183783960422,124.91024740148633,98.82532208474153,101.55715981160411,122.13451227627475,98.03144743625113,130.23825498649018,136.1143322545878,124.08417229341325,111.99727428075764,104.5620175741794,137.28431447365062,131.43557159101363
104.2740842254652,114.0841759579569,108.63311393604579,99.47597985174808,91.40427383545553,105.95737127362631,85.1891694998694,102.96705559772113,130.2084190817688,127.75306499301942,115.81729887365671,137.66508868756733,101.83584181747051,111.95247090799124,134.96779341596098,119.08180904872,119.74472124724764,146.06874773637392,92.72979817823709,119.60712730039785,143.85234630787284,147.3408433087154,122.46133737997434,108.74635424732931,108.99150487321978,112.4799880892271,137.29467590966937,128.7992542996819,154.28823623145414,137.07130489365255,115.39336160508383,125.50770052056895,115.11804674286951,102.64888207494043,111.26523992738423,109.17364581333997,117.43071147186073,123.84658429609532,125.51968808121231,98.36375702825181,100.31842584716303,122.05464905511096,97.06354882830142,128.09617898030154,136.17663756246898,124.38694465289132,109.72326770541603,103.76048770347343,134.6083802637629,127.53294478454637
104.50972520500154,113.73633131306963,107.81841312826013,99.81118766412325,92.22262434302668,106.37204320202854,85.37117518128606,102.97259422470194,129.49853215679724,127.57190911561723,117.09235246955329,136.7575787543191,101.86517359936835,113.12094348701824,133.91195219368242,116.67753722777748,122.06654545956955,145.8191293655356,93.64373889390734,121.14154409462387,142.87430779708518,147.50205011377793,123.2714853137451,107.8797740307986,108.96346648862242,112.59412812998704,142.4738388821134,127.4629499685286,155.4008637851726,135.26839124687055,113.77758088046572,125.72527837116336,115.90527725832116,100.8443884825847,110.0189543238757,107.83866655747735,113.96900681977631,123.89708173066103,123.48460755217647,99.79316627807434,99.97723791690338,125.80646453280764,95.20593627953102,126.5539780467276,132.5652481392356,127.16414458255481,109.85383959785386,104.54678524901058,140.1611322356355,128.72324492704996
104.91044315650123,111.53249649172157,108.91463522506422,99.99047936137437,93.12037401891148,108.50827785823391,86.12467886914149,103.30131718549582,131.39993548354585,127.68578546364604,121.13109356943,138.40808744817443,99.5244634414126,112.73154575262022,132.60969101658242,117.98194042512594,123.25140049202722,144.1225354539601,93.71293410124709,123.28031695903529,142.19265159713842,151.7746325130952,122.55453178845313,108.05655235595972,108.11805766053632,114.08455196929255,143.50094146527795,129.79756256953158,156.88769742224625,134.689849045487,114.49610171552978,123.24301981692199,114.39081811002632,102.74861670282665,110.13029179563217,107.99342581919757,116.34388436883017,124.63820689562193,123.9379006394373,100.4624263911682,99.92956658198625,124.1684534271578,96.5046620682487,128.0998561107654,131.2308401826757,128.97705204863203,109.70177925190622,106.36516154004777,140.40571717621674,128.77146893618237
106.44590366007182,112.57661400407585,106.55358784187999,101.98446142978722,94.73406428190621,111.77138803468733,85.02258637475371,100.66716244405971,132.47765781001897,131.0381251357679,120.24066411145331,139.45359845061128,98.34440821130978,115.18720039302708,132.491176302202,120.42905733573407,121.83763368205736,144.21989810155563,95.82345901049969,124.42919807661438,137.88022987764873,151.52242700131998,119.56698852075003,106.7453644120679,105.70198135371255,112.59336990718093,140.88218954486607,130.4664986393469,154.76697073914315,137.2466931856064,113.41710212144284,121.06799649177907,113.51730090064237,101.92933654683247,108.74290064501531,106.9950746877746,119.9107008158757,124.60394711377485,124.9385076661083,100.813523128959,101.35282369470288,125.45119261387012,98.12426052725405,126.491952285277,129.62545604309597,131.47867589160967,111.45004257147008,107.28845900368313,142.21704667832023,130.3847544458327
105.81348339026886,112.46560931527065,109.3677133723393,100.76018125144684,95.4396936210607,113.23420834510023,86.69496841955103,102.38555674047485,131.3142042459066,131.29254011209696,117.64051092818731,142.0545048715721,95.45043317732294,115.45249028725512,132.58061993049125,123.50404161191148,124.6151631274394,143.7031926268683,96.47122694176429,122.74891096016539,139.4867131405208,150.54809190541917,117.26084688987596,106.05866938439773,103.72387180307841,113.46734098381809,144.41944455104078,132.28225916537863,153.69100445573554,138.8003762222578,113.15895859353063,120.66450304715934,111.16231153241125,101.70113099915315,109.38219663607532,105.95899981722734,118.79396592946759,124.19130636372972,127.96541799523757,98.43477734134,103.12492351623065,123.37895873217664,96.00682926751655,122.95913796024549,129.03653837694105,132.27439710421632,111.4486469280196,104.6500342242883,138.18125843106304,131.70554623200675
104.84861351058866,110.74186905355651,105.40855984833145,102.09865507704289,94.46468124042443,113.47031657231656,87.33465176619545,101.0239573254088,133.2446608130032,131.47559810060199,118.58275564229496,143.7142656089039,99.66743548564688,116.82812427850938,135.0130155419918,124.49394138747355,126.93549243425097,148.6468907308193,96.58778346170661,123.02963229586004,142.4475525383218,149.47189706361945,116.94449715323785,108.2514940034366,104.85563604001905,110.66109010077226,145.8551226247194,132.80747865088009,152.9573679406326,141.5773658135991,113.12849131583842,118.40733842404887,110.60269535367983,100.12407577134398,108.1125829557391,105.06313708893569,116.587195824871,125.60293981066938,125.61267209490798,97.93823238127544,103.21215144876679,122.81108902589116,98.39245029894529,123.08515066367869,127.88676891323213,133.82587752542736,114.17609883997508,103.74775493120987,139.8245881714422,133.69857963872138
103.22465320887638,109.79349291590523,105.98455166717223,104.83837169419384,96.1946420533031,111.45953996959891,87.1297520820964,99.66796280621949,133.53098025159713,129.96057177940563,118.31983143993142,143.23623567776522,101.99310685896171,117.22573452249044,132.59499591623788,122.98721466031118,129.13098657367163,150.37335830268498,94.904268508111,121.22188990334882,146.80406740595126,152.51662904745257,112.94626490944964,105.8485837682649,102.64644312718056,110.93801167410075,144.03272815245214,130.10528161888925,152.29068157364452,143.7936197223969,114.23779958676066,119.97582669547675,110.46272867555024,99.37013476879667,104.17646307983901,103.66118757871548,116.81451781129671,128.3110970882858,126.43971901797798,96.90528893264889,102.99870492982576,120.18155308269331,96.26042425907683,123.20752045737443,131.10053730973195,132.2282266742518,116.80826421241937,104.18222756127138,138.9369637735226,132.17087554702337
101.97263035356859,111.76373964982093,106.23427453800734,104.37656672791448,94.02968077265464,112.68650827094154,86.35445349251535,96.33606605742116,133.83854143346767,132.46186570727218,119.24265139770125,142.4243491557122,103.0585498099009,118.21575169868639,132.25112957407305,118.80736678374355,128.62569879067732,148.57620380757487,95.05032800550224,121.09129678474997,148.09685426431437,155.55239298724237,114.36098111291331,107.08621347792563,100.72387569598395,107.75794095024851,146.0183318282799,132.18723234663202,151.0618888049615,142.43134230747216,113.39990873940579,121.02225332255932,110.97828693997603,99.00791965636314,103.87106592848981,105.78694339719691,120.27423012622481,130.19898494710876,124.99194327647926,95.60094565406601,104.61377693305779,118.78259378316727,94.41975654837724,120.72283318438708,131.96779594265834,131.3022768727507,118.57916104765965,103.64800007127674,138.24822690665977,129.49788932918605
100.8889842680053,112.2841421944911,104.17598324336569,105.49801548039675,92.65267636656509,114.16363121279358,87.65300766199213,97.45370600160761,135.61741602472125,133.90141630690147,121.38061876311232,143.63504936516875,102.51769874013405,117.19744205988538,131.06346084277064,117.03796308190202,127.596311911158,148.55477292970986,96.49859287659167,120.97495214466402,142.45309811420896,158.42444412526677,113.83698156252883,106.41150289095046,100.86330904190281,107.20947836092509,143.6850586497086,133.98531887075137,149.57818498362624,145.51714827334482,112.87003053906354,119.49702869075,111.84227654022229,97.45297420109463,105.96882719026563,104.08785731948676,119.40425386942083,127.93050623764596,127.3478222121537,96.97940753700034,104.59561893203801,118.76201426867046,94.25736191441817,117.07911291343942,129.05632648820142,134.28712657930626,123.57214883935933,101.89280645738131,139.05530560145732,130.20785500570176
99.20082051314934,110.9635610008562,105.58527071021955,107.89976700721327,90.70817507008012,114.09114763948644,90.93528464096785,98.0906108479045,135.15312127545246,134.52168152369313,121.64233084128583,142.6059816648669,104.50239198540152,116.7451099498691,128.9368270812815,117.8777619959059,127.70939106509121,146.54177627152666,99.29852513463469,122.93864400855114,146.94149776123334,158.3786563820296,113.24302817183066,107.06665610639271,100.60764944671776,105.15046408686382,141.36261195953543,133.11807268333638,148.52362911519046,142.13376287822047,113.78130595460048,120.68892204026275,109.29511029777224,95.97439351187738,104.06901904274191,104.42904250244293,119.3558882111425,129.3912970970776,126.63641527097076,97.11084769702937,102.5349514984315,119.72886667628923,91.5100128770587,115.28905809254005,128.3920652977109,131.72663592796107,121.71360680669581,101.31913485887597,143.3774783861338,128.70453147827237
98.42521807023716,112.71707757407081,105.01985580720064,107.86567519895611,93.76822395257072,115.03141136968208,89.19486371365784,99.29261375574171,133.7338265180261,133.0468926263381,124.00131313916667,144.47442362667786,109.2651814184894,119.53683569329507,129.48940492990673,117.12666160163775,126.04994900630373,151.33878038308015,100.50728497696672,124.444290969253,146.6344983439422,158.60682110795037,114.29583282506465,106.52669831052806,101.60004101984457,104.80239954601122,139.38097206906934,132.31854695934007,149.67379286320406,143.89616413832707,111.49349324666433,121.18126110550169,109.09016283761093,95.27344265533684,102.34493109206716,103.17622652048401,119.23368360085121,127.27631976878132,129.82849289019484,97.648747125556,100.48673873704878,118.06212220618349,91.41848003569277,116.6599249125682,126.70731049499993,128.58014176967836,120.11418332572241,102.36633127555449,141.9162026887665,131.41056758491004
99.32612665842153,113.17010170814112,103.49692498563621,107.61073897510853,90.8301708042281,113.99708078866088,88.84889998647135,96.1828556868298,132.24578752091796,134.7381536991083,122.50337442422008,140.3739575622376,110.47221736717385,120.81938892267738,130.67039703169695,116.32443788045877,130.4418993646475,150.37800443531486,100.1124634980257,125.31780749184011,148.22358540369018,160.36920126938384,114.87986033273748,106.92606305064865,101.46831972942334,104.96512150656778,135.82977459600434,131.89050144407432,148.15909085846067,142.66450901580015,111.09542609479178,120.41701305160045,108.8394378687339,94.30802920023537,103.91744793499457,101.6881957556283,120.41064326087533,126.76050182451114,131.3926056183384,96.96078845376158,98.99094704299749,114.98942901770751,91.01264571402776,116.42400397829786,124.34227336703644,127.15907736716112,118.1229389863655,99.55871908717477,138.86496314015574,130.0194038954584
103.09184383704311,112.31018832248076,102.17479144231848,105.63726266423002,91.3804178412586,116.67804738813803,91.70789855574398,97.09798858856882,128.70136882721235,133.9633778494963,124.7146683838857,141.6756660309339,109.51137523625745,117.86632468444522,127.13276793669277,117.53945770732635,129.91918023699753,148.78507703967097,101.12877916627926,127.23165223916442,146.08083148759343,158.91507269763923,115.95484290471506,107.95392703669494,99.13301450911223,106.6275901309212,139.05713997242887,133.69872261535107,147.27225823961845,141.6242123383086,111.96573733614137,120.29151280665374,105.73926348256254,94.6177043421259,105.01363062897916,104.07146515558912,123.21520443680082,125.42053355780453,130.77327082350237,96.50243628533342,99.51637735362533,111.9106829057757,91.21159896315679,114.77604640939293,124.71175824337081,126.94489604372929,115.98526798417113,101.20940720706744,141.3931760533803,129.05480998260694
105.0411903994446,111.86976220688435,98.18198007432896,104.05947267932865,90.82642265079458,114.40434866736797,91.25634442948096,98.38661141449633,126.29018674392427,133.35937725104702,127.53485886880779,141.8882908182297,109.34157895272172,117.70436975234803,125.96985977156156,117.9757695395249,128.03053200570346,146.89303950802145,101.95143268426433,123.04585802779532,148.44009505523965,163.61023408463518,113.45649017134221,107.13503302916284,97.58981893385246,107.9007589858079,138.65288877341717,132.85612216627067,149.3005873441643,142.6791245562934,114.78375269681979,120.9779993238295,106.62506678941881,94.1921096369078,105.17800597156152,104.79595334167462,123.38345705045481,128.7721200665001,132.48521432785145,96.52487469147685,99.45774646385388,109.87953614385661,90.17609650007732,114.58902980552638,124.58006547290172,126.15157723069733,115.16068337342809,103.67314295794979,140.9922065945482,131.49220864548536
106.45416906730559,111.17977575258905,98.78880623493613,104.7484197286764,89.97317341179868,113.15852199854774,89.66237506607813,98.0957150747606,123.05792424381913,135.16480578428389,127.21078180075021,144.39828226165707,110.9762343649718,115.9766910048365,125.1766412692581,118.66096371236273,126.31637581082273,146.97638886504043,104.85713699800688,121.81625246658606,148.09218076169788,160.9337781636971,115.44051968589743,106.16050809263284,95.32427395201975,109.35309089979364,136.79259658906005,131.7119031603992,149.41190233055022,140.94940647611898,115.5104752452853,122.34131336181449,105.11089217936677,94.24069569274849,104.28251185768036,105.26252040413586,124.4694551085716,129.09369780502956,132.3050852770973,97.17687673103292,100.08652875836754,109.1355077856309,92.42765083472955,111.36948889271248,126.20448868186115,127.97095838739462,113.95984855085223,101.41042022188358,142.82564277606807,133.42113652421406
108.41177828843364,109.29299380986646,99.51516773045525,102.38182816367538,92.31828602334568,113.18023055108779,90.27249963482913,95.28210839469634,120.55076992371781,135.41679183905262,124.32069395920767,146.64653270090784,113.29623693477372,115.61121986436336,123.73972410828644,118.03247733406582,122.7745237799927,144.93194943860152,106.04485760460915,122.09070113948258,145.16573597562171,164.9268130135277,115.61513877036018,106.75301891717244,97.02042613903254,107.90589075923205,133.87298748441356,128.47011377383186,149.90506254570454,142.7175698475222,116.49550091179626,121.5588618498955,103.71800745982888,95.3206436409365,104.46534082579547,104.33499939464183,126.03004375313708,129.86497799100638,130.27238815374892,97.5516500728016,100.20208085221986,107.37742975348182,92.20281880798257,111.09139213251139,130.0123935813645,126.24025120364111,113.24213451576111,101.68998856149929,144.24677515194696,134.33007176784272
109.30761866417932,108.08826729092188,99.12884963103166,104.18709135858553,93.46570810262058,112.69862436251364,87.68661021080281,96.40919947929682,119.61558359131892,135.2322091366867,124.75552402037691,144.64478188052578,116.3812910641174,115.80718452755063,125.01604961300467,116.99578303163173,122.90735890972763,144.42345251397765,105.33222603482243,117.1742222119588,144.5283587641478,165.25529188759117,118.11922515165632,104.84477614470381,97.19637899840129,107.33230545208798,134.04167348438128,128.46466149852276,149.89027945315797,140.72009571041804,115.74929917075677,124.17563018294653,101.91617573598367,94.23425959490866,104.18986691538655,102.40965485839592,126.55186808046007,127.16558615845344,127.46811890260058,97.66437903053391,97.30953704162546,107.94606351112141,94.62099825201524,113.96139887379212,131.48056553639813,129.5556862118584,117.67750653335061,100.5336988720552,142.2807628508164,134.84659505132976
105.73260373062801,106.086516317805,99.01047611079031,102.62684844772913,94.43308164936414,113.45766224005855,88.80009988765977,94.12936233375967,119.3442066420621,134.6188677875214,125.20701109887672,150.10052432186356,115.07980192073792,114.29289049170974,127.53671078484807,115.13395561335294,124.37467217442322,141.79894686322956,105.20027405496744,116.63708489963135,143.9297326412906,160.62320597274444,119.26638327278373,108.13446493312476,99.29511293812097,109.02910669947909,129.7358650100287,127.00388463854254,148.5573376386558,143.03000406999683,119.25571155409597,125.23871938437429,103.30943007529724,97.11148185790394,103.27051785521391,102.62987648846823,126.0113141258934,127.6931181697732,129.1034606105717,98.93514636040358,99.20595233456186,109.46312854278298,93.16053666115732,116.37784789397561,131.5239575854141,131.86573595007061,119.18520464061882,102.05037658052532,144.01222354628203,138.75454480075288
105.54180634011647,105.36149472158024,99.2038856658546,100.82704423855213,94.72150683022187,115.83385789066918,86.32901927239327,94.97301913763087,116.26229275237999,137.01224486684836,125.35773015676348,149.4530354654975,114.59276219637559,113.52289177181646,126.29145032262389,115.08862980094854,125.83089833365713,141.193352940994,104.46113381175309,119.97281547518827,140.7584632858228,157.60949133258947,119.3651115783946,105.94394945494965,101.63112589488324,111.58664931785033,126.0819854718138,129.68944829117856,149.536859424477,141.0205682980715,120.50728888285494,128.3864929461218,106.16701806807966,97.62127486495982,102.77546656204485,102.72781993171867,123.15017594671819,126.37480717645897,130.13249273629367,98.97059369943192,101.32092066941314,111.78123120353953,94.0537955759941,117.47072873294911,131.89965679718838,128.55586954265928,117.72659363425134,102.18949147617589,146.65620634964387,139.46441018687509
102.69118267439077,105.92997725742804,101.17789509023731,99.64468963477309,92.58053848169573,115.72371918983,84.96055982396912,95.9231206960163,114.94727189444677,136.24876140617283,125.712202098559,152.9458805256354,118.35364696816285,112.89044140498068,124.87389568506583,112.9814850846203,122.12052777595633,141.5772621351784,103.76388592685338,120.72941423358779,137.44511432194298,159.1249624218942,119.46831834201453,104.40577646492983,103.83075938854111,112.38127423428249,127.81437032822694,128.4991630769531,150.1182645541116,144.2465617374754,119.93302984670557,130.18395898252288,105.36606813701586,100.18080819547036,102.38332837071177,104.56620361908517,121.50087307444115,127.17857510324836,128.4207274124362,99.12565902942865,99.27473957674367,108.98049862479097,94.85176488404261,118.9863736075721,133.65355751228526,128.14490540447713,118.49207508290579,99.19151773430157,148.76626214655332,137.97957242401674
103.75764255244876,106.25700767819221,99.68939712215024,100.71660089302496,92.10090060779011,116.65817417976452,84.18214010621281,96.91567157311349,118.37625134228051,139.1081500340433,127.2918886426661,156.55833184758603,119.33024803410296,117.92483574705714,124.45089035258236,114.95939935736729,122.62178689166451,137.84700581749425,103.49791319209656,120.07585854661524,137.89751037752822,159.7544657645326,117.81429675439922,103.50429800649154,105.04005074632528,112.77570003673829,128.7288893942612,127.58021246872126,154.7463356938684,147.38424930049177,118.87698259953414,128.4041240048735,103.61811586427311,100.15532174176376,102.35721955988998,102.66317292341209,122.72776095321726,127.25139301844892,127.43827496511099,101.12192634623325,100.92697407614496,108.38430052499203,94.20128079487507,124.35971116630462,132.99227552848603,128.2479876238045,119.65181767516398,97.12888508821499,148.43311402147026,138.19886054979628
100.5834346833314,103.12520781832647,97.43300920567367,100.31983834286731,90.0922554509797,116.00015962742815,83.82668688182099,94.27970587416526,120.643059465753,138.43389520918274,128.79189896183613,159.76168988717984,119.24609106062347,118.7435778548716,122.94536416722586,116.31271046885068,121.62052652547469,137.15286960224807,104.32119133002921,121.9296415008295,138.13033519691186,158.5728394504759,118.34845490730635,101.8575450781041,104.48096985971573,114.92703906286651,129.18822449316914,127.51008347381513,152.4588635577163,147.74984683555485,119.7712637062828,126.88874460963672,105.64370599432627,99.0619920858738,102.09134284186241,101.0864280762136,123.32991136560615,125.81999704684235,124.40268040008084,102.90781630727257,102.8220595770159,108.92205406646987,93.95690749654585,124.03177683093162,131.68289545978897,130.79238308774887,122.64599221618565,93.98696455011216,150.7674495293498,136.4209879857827
101.37887726798148,104.28944541896055,97.05443729180104,100.06996150578912,91.79866037148491,115.44546513725595,85.95881283212589,93.24337452793316,117.59342454814096,138.5904882385154,131.12076887683696,161.80536360867202,119.67836770068178,119.53131230453738,119.60090496006346,115.04377792416939,120.53617595406763,137.37062398447935,104.2141422050701,120.73507509577,140.39027207409407,160.6570547799451,119.26444159411287,103.96979448851037,105.20068436585224,113.14373052541757,131.51961000104623,132.12625421831603,155.80999795132047,146.33925418265903,117.7839207826248,124.71780693307487,107.51134764931639,99.94863116125146,100.54331039263273,101.43619428311268,126.25313378834723,128.0057531636607,123.75856423796073,104.49859231433976,102.65693071809574,109.39969017941569,90.76384142947674,128.00354880231052,134.1803346449968,130.46455891657257,122.88723965826185,94.46730036880514,151.79545401553216,136.16443492104065
102.25535677580046,101.74645720206702,95.18682020962177,102.26406182078665,89.9851192591531,114.81373922743828,86.35315008326249,92.65454873891773,117.61601007286463,142.3128789129177,129.8357043713513,162.81895426523135,118.3296268261897,120.8333021822661,120.26648517704963,119.18971608288602,122.74496522512592,134.63776890184056,102.89450929939724,122.59217144275524,142.36507038645743,158.05347919968958,121.2641138839068,103.17748075204237,104.84745494085912,113.2851107637867,129.80877888598215,134.42207629254742,155.965141139968,152.3725669888948,116.85271491636192,123.85856280005362,108.59093222585633,99.75571060712313,102.12453917778484,102.3274938265504,127.89494897745321,126.29288947266947,124.10276447471334,109.16516163408193,103.75280552053219,107.04585890850464,91.33059322170824,129.9512927665106,134.34248471502326,130.70952016346482,121.41202863109476,92.51838833106211,154.97013976848933,137.81967271954713
99.42120207225685,99.04325562361953,95.43613387145102,100.6230401397124,87.66138285090958,114.33040714699548,84.75610367466311,91.5547904541383,117.07122188156758,143.0209692805201,134.1666349773817,167.19614618624288,118.23814378886955,122.42902783138814,122.82697905770279,119.87629281314005,124.05169234563675,137.40145276720773,101.79230162350287,121.41850695707983,141.8009097661991,159.36274601704596,121.2909926437384,103.55440544548934,104.09666945398652,116.86116865620801,126.34340262039395,132.30068472069493,155.42632804782878,153.46771620854702,115.38673564049826,126.67115770098567,107.48764013648709,99.83340114525451,100.83463161959097,100.74191651692075,128.25641494595757,127.59050429828085,121.29090030363749,108.95562101859632,105.16080435256467,106.39538243859188,91.38487826957594,131.76832599939715,129.6760683211128,134.5041781867957,122.53586279197903,91.92160828988793,153.27864832257038,133.24254370356718
97.41556526505224,98.74650192648123,94.74231316421647,99.48279975831201,86.96284022918258,112.92671716430601,84.0641888293873,88.44912739894198,116.08512631829088,144.28572002880225,133.0073393006255,161.95361409288472,118.193434417481,119.5394174903917,123.23778273426012,120.07414868463036,126.72892029599399,136.03958947896317,100.0190538136977,121.17629535661764,142.6461755898838,159.50390841537072,120.49150277387905,103.21235027782679,101.62739215327498,117.62646174534757,128.70318383335112,132.90516589431493,152.79056715005834,150.4815614488543,117.02058261146185,127.66900857636513,109.58271027588691,100.66882644195465,99.26999074008793,101.55144709812365,125.8007224310226,130.72104550434182,119.87002370867798,110.35841873142226,106.23327847456198,106.63637105882076,90.45133815009696,136.18870457262267,129.68236998802263,131.85879176106246,119.75137964491961,93.42263550352457,152.2264727341254,133.29631934334216
95.7740169846676,101.49560226036206,96.81553543672038,102.26634669417561,88.0881609723112,110.10585680970749,83.07511350085007,88.76984018942993,115.10558791871266,141.4956744226276,130.72043565110246,164.0468234650033,119.05033939169509,118.9583328634455,125.74822697840085,118.86477887073858,129.02874970063655,131.4714895741844,99.56026568656166,122.01453083393287,141.82638205052973,156.9443093407508,125.30080288441208,101.47347966760778,99.11160775379396,115.85000111359923,128.3178762238272,131.97452892231345,154.0760941427534,152.94541027043016,118.53422657355154,126.30864023016106,108.35343310717114,97.95481858336194,99.9538022749918,102.28172800563159,124.96507214917678,132.06037859481484,121.96710966064565,111.1562536083771,106.0576558672064,106.85486139075378,89.39569227444223,138.40157630211482,130.90769419087118,130.56176934882822,118.54053269092114,92.9778878576983,155.71544230070333,134.082393991458
96.28373008100036,101.35936902190358,99.0579415312719,103.736358651439,90.41244525936153,112.21632554455789,83.68115949623981,89.76056696564237,116.4286671624786,141.09856774777032,131.3053886275514,159.6261710311742,116.94777567500799,119.95968209020235,127.11668598556709,118.27297605827671,130.6870818604124,133.00076780600517,97.90270510371948,122.60890420757129,144.8466838659476,162.25089861032828,129.08963476079325,99.3723187007491,97.42945801371333,118.4796642108416,127.73517433548312,132.46187453164072,150.42569319129132,153.20570241449988,118.7976140384598,126.39580154242853,109.70975515047255,100.05119955503332,97.74032814383048,102.33466812984193,123.98058478262104,132.84702327626093,119.597511445409,109.39674114962054,107.50605825774272,104.67461785575395,88.93332745273237,138.46963915572877,133.41287955217845,127.2222138978386,119.6219744567884,93.63811127567813,154.33260032170517,136.41863960609422
96.25146820910264,103.03742040283348,99.44113402558037,106.78919890569239,88.71610961603332,113.21402974643628,83.54268995516544,92.20994837267138,116.38752297975302,145.51370899764862,131.67419945531773,158.64286629079385,117.55277169432455,120.96636158915463,125.99587399116933,117.76814768052726,126.45846863178832,134.08885054432008,98.75083240703088,122.74204069079437,147.1479117847134,165.86255469023413,128.2789970391463,98.40492030950432,99.74270452832714,116.9908828017064,126.36473504912907,133.43970957486113,149.67460470934785,156.4992504138585,116.7461374367428,125.79399725034303,110.98150098701724,99.35118857781937,96.37883429651293,98.96833309677564,127.23007258015075,131.5058087576614,118.81309580566989,109.56715514818065,108.7045948179247,102.58826029510358,87.85980065344967,137.23035749206593,131.4571265209684,130.88345363615736,120.12385607880131,94.54468529999042,154.4785580675783,134.60972050618534
94.96970348981047,103.2473025358629,100.52549239658552,105.82122340310458,89.56514903091453,113.13356232952694,83.43503152766993,92.76218909680773,116.89876403784744,146.5176568254052,130.06174711788424,163.72110279958028,120.68218563039667,118.98133028763851,122.05420734697127,124.13426347633228,126.82876163389477,135.907374825995,99.94357431230806,122.3645014331474,143.63311462724096,162.16643398474307,127.32588734170636,97.40355962484985,97.01745183622691,118.45613726632935,123.23362088985964,134.33460512858227,150.3754723731589,157.5487176684142,118.99687726080717,126.90164189118069,108.72576771032853,98.7264109220447,97.24252993451066,98.03751710908726,124.99851502652044,131.47052875616788,118.0476043372639,108.18992994962436,108.30802289236084,103.04205055049243,92.16982127133113,136.20354808434715,132.17627445410335,128.13026062400522,120.24439176167039,93.88386993051097,150.69651541117767,134.30906500425337
95.77188381953337,104.04614804940226,103.66854731099194,106.35727715515802,89.11933769193365,112.69710110376485,82.97966952031501,92.68830864699575,119.21191496594808,147.63332665217672,130.45320978476974,162.97737883495554,121.66741113338756,115.78951175787144,119.35782980648929,122.4156728995417,125.43422157647663,135.97874816378396,100.11839050731494,120.52473569131335,144.60830590363832,159.50827935189227,128.54093782025436,98.95886226420532,98.02797136070748,116.90718424646735,122.93622413743674,139.80966336235883,148.45653362655517,156.12187730891617,118.99392337889707,126.08896951476358,107.91679854619338,98.52331219314944,95.83349118988082,99.46827850771102,131.13845320827008,135.0479878998843,118.7413982661804,109.90377501356318,109.30325766976087,100.37827593256715,92.62803964568813,134.5864350319298,135.8489628527957,128.7674002795608,118.79958078652632,90.87726500930023,152.71329117122698,131.63191197583689
96.53495718413562,103.38012007038128,104.66563060712996,108.01024739725223,88.90697339401285,114.1714544960184,82.84542115142237,93.63455204457505,122.45394349372795,148.15940074581354,129.88553893947616,160.43371872460514,124.29576849108318,118.407333188113,120.16063882464425,121.19964448929608,124.78256798912058,132.0828999320496,98.67793772901565,125.90811186370442,143.45474929832832,162.37251579632732,124.39510980982674,102.39913822680785,98.53265223005806,119.5963165412521,121.754370883852,143.22085762780532,149.44681703768597,156.11562089794074,117.6352425574147,123.92307577902062,108.19330108056072,97.80287965062858,92.07778711192533,99.75209430171013,128.99090146036397,137.8607402034473,117.77573986072721,110.16870238997919,108.8444318908944,98.92221856790937,90.57082367828589,134.80828783980155,134.9502670083561,131.45953046653318,117.21517457160499,92.15782808766194,155.95032124871076,133.27055169745032
97.92372238454361,101.35226498628404,103.3684033994044,108.3394060377305,92.38117387577124,114.23025884630643,82.42640630978333,96.6569118465085,120.12553557812707,144.37421337753753,129.56604019054157,166.39012602369476,125.67244373151495,117.77100187207714,120.60503957176076,120.76989804988361,125.69766773434073,132.66690608252802,99.80433204173312,125.07104310491323,142.90075168612177,160.41080373267917,124.94628928788063,104.94295417629075,100.49855419550033,120.2560244484425,121.32964601666258,146.50766767137398,147.27088639291802,157.15928388473313,116.67319090443871,123.5363901094789,109.50538906137511,97.93359954565773,91.716616800601,99.97549124552815,129.72221997616762,138.12595479970096,119.04060360812709,109.96700230932957,107.78945071129442,98.69645781017127,90.49631585009301,135.37911554558724,130.81089213115567,129.268698135839,115.88642570808346,92.85323027556915,157.62678983364617,132.0060184646397
98.75430335028777,101.19557944073827,104.38252494194063,108.60810067445834,92.35652948101958,116.13422060140013,82.11633660427648,96.53980161766907,121.59003348541668,150.4736812312708,130.15022794768234,166.56413455055892,125.97117791421336,115.19223417755562,121.10661218265881,121.23364750634586,124.02417888285414,133.43143628145313,99.77898313821234,126.40668503232064,143.50851040473302,157.3666414786904,122.15300705546429,103.19465046676602,102.8902574584528,120.3163657742134,123.20671457672417,144.86281272741684,145.07244878615285,155.91304965871063,117.77301096353477,122.97852855958415,109.66928819131189,95.49038666078866,93.72327839103819,99.94060078469893,127.88057924065515,137.18718198841717,121.99669447957508,112.03970052898565,106.8515526949837,97.32122163328403,87.84394882686001,135.497593936783,130.21405418583265,128.0693829671556,115.131970611188,88.93659938040611,161.76814032892497,136.7282348885883
94.92005270692025,98.73274373512028,103.26368660340073,112.74188093541649,91.75089360300392,115.14396498472071,84.18260012917759,97.550928626659,121.52714969156709,149.37451480389367,130.06078489764386,168.54304597445773,128.21200446638247,115.213940814949,124.36007360712377,121.72555911210767,121.72636252613931,136.09924719944965,101.53801198492238,124.5346266740409,143.20714479522138,154.52857844860267,123.45245993237677,103.3021259458863,100.69080972861013,119.45117038766361,125.18992223036507,142.52508609063304,144.34989366790154,159.77586476144535,113.61688836803604,120.78467467933581,109.90255144489343,95.30775504915958,94.51482056840585,99.96263950894917,128.79146899180563,137.37044819079222,123.0616921914483,109.86427220957816,105.89561587760659,96.95542289555479,88.29169180221407,137.78183164694278,131.26507994143236,125.56202658560265,113.54714377464654,88.89298170863,159.63443341603065,135.3378180906931
91.56556756433116,100.29339887162831,102.0618519584016,114.45995232913975,92.89483402142264,115.45985648187792,81.99272785779372,95.70605599044838,121.17392095182787,152.57340422930824,131.62482598850036,162.239135254919,128.15626799366748,112.45948806707523,120.78319996822977,119.98243849632276,119.95052760234339,134.50234561986971,104.65761945301495,125.72925654760952,140.82097464201277,155.31865400604136,125.73096992194688,103.35364299856423,97.8743333486303,117.67408464758361,125.0273783648481,145.34555914670153,142.97786331827578,159.49584482405422,115.92384239002959,122.75719765409885,107.86082790914162,95.98883404999061,95.45993601891813,100.35629517490067,129.87620321972904,139.41842106820695,121.0968535100457,110.6216943466045,103.72174624925297,94.71010914754432,90.1896372366143,134.79323521344566,130.63659042407852,122.49432934967864,111.60190742172334,88.36538395942462,163.03280926765663,133.16210582763253
91.91171297551784,102.42235651925235,98.96710637600354,114.89352320960693,92.63987646140042,115.70500303053755,83.71379540322287,93.36874125521835,122.65851282604035,152.16081331724,132.14433908319933,164.7774565796341,125.58694436792726,112.55321124185232,119.29362764208129,117.3430787169057,120.34517593656197,140.74242009838167,106.208836100523,125.49950896810972,140.7487380855808,152.0854096421138,125.97319492892211,106.52145055169164,95.97465604182395,121.36541338001098,121.72874838595132,144.3834490719416,143.93211862083925,163.60093705952409,115.72935502472137,122.71052759619457,107.0136938372195,96.07483153675906,93.71620805954781,102.89507388352736,126.12305829266813,142.34810644067582,119.77879614606427,110.71655556518937,107.02332314817629,93.1770130682039,91.20555207948472,136.71793660477178,131.88284285032643,119.78457404266277,111.79965756453066,88.7424996406891,162.82335960534328,134.37252388814906
91.31967856045398,104.0040134016158,97.09785822549595,115.58794082609025,93.90786308685568,116.70508607344583,81.08238752835769,91.38956939217282,124.83240536324676,150.07674552156527,135.82749748875023,166.19956434813793,123.82099650537853,115.30418112933174,118.92966863074992,117.1348314228114,122.7533344118075,141.35542644442364,107.34024722079064,123.97061574434531,144.0385743123485,153.21625752781867,127.73250195755134,106.45381295033756,95.40750343102772,121.72109001201687,123.92710320698197,142.3219339698289,139.08946182228655,164.80317958262202,114.7771699583479,124.10873996891152,107.33066132276424,97.07742418262653,94.53346260439098,102.16126861144804,127.18738277108946,138.20571209917503,120.71947523831159,109.45360166555375,103.82120140599606,92.83686187827223,93.46983678395077,138.72528972403757,131.3856990794733,119.6690556267886,113.58131623370164,91.89928966642888,163.80491654286246,136.1436920453291
89.55142124035221,105.51228808590344,97.90898077022648,110.98907493088689,94.2405783486962,117.09504256183718,80.59516772026971,89.36563154717206,124.94024497493591,151.48695702910098,137.30010196495047,169.30493436282458,128.1981524864362,117.46714560033627,120.18650045458675,119.88669650921761,122.79920839774876,141.66917038198238,106.70534154431745,118.39360466856358,144.12349602399897,149.34713098013418,128.2074148198455,107.14144138514693,92.95586035439352,119.1652595038759,124.17210985522966,140.7407053081397,135.28436438768654,163.10364850449372,115.68807547566605,122.50696135591555,104.33170679324748,99.51262362173023,98.98911778639904,103.29066881047261,125.02933823666504,137.4640093583837,119.03724006315274,108.9908785752736,104.29705304376527,90.7469059715078,93.16918740593317,136.8130028554167,129.69553894438,117.04913981874031,112.0719261608645,91.62320672421583,164.70281879908768,134.82533060941336
90.36751088349683,106.16860342157602,99.11003298063628,115.11810505557924,93.79244925116375,117.49204254409615,81.1565698027905,89.87309791006564,125.18560260429672,155.84596334093112,138.4834581114506,170.71236822379308,125.48534394112963,116.51972046285438,119.05698765020963,118.6887193166709,120.82566204642104,144.6497368954572,110.81009649017811,117.52026070196744,142.73176938385689,150.2045307192107,132.93900477255264,104.29538138553544,92.00292437016435,121.67796680121029,127.17902555482186,140.9378322773524,141.34120146213422,162.5268004333912,118.16552489097103,119.38804537848912,103.54715607042998,100.88860794592452,97.27366196944345,99.68086229231363,125.21167502287565,138.84166891754512,120.72132253352711,105.51494325492979,103.7253878624846,92.78467992103513,92.66883612183778,135.1195085788892,129.35301716075404,116.65705771841046,114.63207884703876,93.89777559678242,160.42463519597817,135.19130642928303
89.79994227577217,104.78433802003447,99.40134431793773,114.44701253168925,95.14559423402238,119.6195714602649,79.60114283919033,88.21438423899657,124.40073056663026,157.76792975954305,137.2621504512356,167.90102913513505,129.71698882818188,121.51238309873233,119.83643398415278,118.20279370993887,118.43128947075996,145.67017213943353,111.49123104219345,118.01658302217956,144.19605638055444,148.08482412662136,132.91502418215705,105.18477695402291,91.9084441043859,121.86865056088745,128.89937873685173,144.15036748589736,144.03013074451914,162.527700709189,120.69032936724659,120.25420025615713,105.00158833298582,101.26357158396355,96.08974051090499,95.8418025748498,124.82979204315284,136.08014306951563,120.02733439899333,109.25841525438135,108.8717029806485,90.78765012878772,92.08830343764167,134.5481105613175,127.93879745871709,116.27859822455515,114.49465913742932,93.45970933937328,162.18708199945036,134.7113631802322
90.48377822373259,102.03672174538153,101.13109550597622,114.8019549356087,97.89536170849777,118.69495852813212,78.42041661282592,85.89954073482299,123.61164741292988,156.38535429958773,141.13679113763905,170.37444504995918,130.74392066199496,121.82817360396774,121.90801570062142,121.09907834556637,121.17089197689204,139.34712089344532,113.85130141199343,117.56056638609135,145.572659920297,150.4557509827878,133.6980116306618,105.86075192784524,91.83045014881635,122.05704959344801,126.0616037959191,146.05300446081273,144.40383684597992,162.88572293466237,118.80628782631557,118.43712375425032,102.32596661983351,100.25800952736788,94.9705392773097,95.81470729292455,123.78014098892969,139.78909142856693,116.857617715247,109.61897280520306,110.32219697197296,91.52154453522226,90.16396083502545,134.25093384103366,130.84910277906386,115.91916232826857,110.09837709274322,92.06415113789043,163.05207451985672,138.6633309895633
91.59492738636915,99.16906573460602,100.2508633546082,114.95473274263847,97.33847979992002,118.51209931318041,79.61314357944285,87.59017498304874,120.11860492456344,158.18421262853332,140.1190225941144,170.07489220788983,130.19812617895496,122.75116483214228,118.32852926980763,120.47022838685763,120.5163853209598,140.69866431092828,112.43953605538412,122.56718039818816,142.92959397287422,155.87745718515583,132.86941676839703,106.4469716878064,91.32943023623714,119.4358913259891,129.03034873578014,147.64114779986562,143.78393993539655,162.67240476934097,121.68606730656785,117.3953301800261,104.31782419348656,100.49452637714984,95.67520934736358,96.99644735604296,121.80336933902608,140.1365497648543,117.03540735605597,109.68735492498367,109.07100472294458,91.6596905914036,89.26317297709932,139.79893262895786,131.372065587942,115.03980490265113,113.52927573476946,88.71727958636887,160.36999499145713,138.08867547336936
89.4518055876015,100.08376434003885,103.02718151989497,115.6253683534586,97.82906906055018,124.62922665059335,78.68549075912985,86.68113111111843,120.20571413507791,161.76264443614406,135.9822753207616,167.98929428616063,133.65121517774497,121.06319203890155,118.03770498246936,122.04908095360442,122.49816175655019,140.47185267964502,114.2364774497721,121.82388943930081,143.74223067414775,155.98108227270814,129.521180851734,106.01812889479915,87.88909118327962,116.7801385491134,130.4780008323567,148.28909474195936,145.89197988171873,163.43262559319717,121.96263852660786,118.053466255019,105.15462769959551,100.11524415329924,95.1078342823715,97.99557269377311,120.98533712270016,139.9637677799522,116.62160170185236,110.28208235840525,110.26558663660977,90.08660553328222,90.74940330669787,140.8387961893385,128.8961131384946,117.89414057890406,113.58983004138383,90.24431587399836,163.78271141650598,136.69347437546682
88.18729571074539,100.74486676202572,106.06360322674811,115.13582797481882,94.97542303893135,126.52062948791303,77.36820246335965,84.9031735288839,118.06130539077064,163.75773499864337,135.5751117219708,166.82187087281096,133.6838560227183,124.84593169528176,117.8900640093452,123.31182256737155,123.60596307893925,139.0984656788013,114.64350435696446,121.84883928224677,145.03641486849372,155.6751336376804,131.68260091030402,105.29670021925908,85.7729972632188,119.157398656383,128.97343498819114,146.43600118268066,146.17021931577503,165.53006686521502,119.97198124712747,120.14559191336252,105.68012659671226,97.99773307762577,94.5358036327776,98.06620821962933,124.05188465823962,139.93169041579125,117.83714510889648,113.04256843269009,110.04614803770623,90.20545231395187,91.79278494743323,141.51542221287622,126.95887178937646,115.87481720242235,113.09404835621211,90.25992807913806,158.98072492340202,135.49410721380008
85.95393589319978,100.81820968558372,104.94313553400248,117.42224685616817,92.30562982571493,128.5779022461613,79.85440060348186,83.75754325096655,120.34444884735395,167.3489756804729,134.4687226478374,164.9029705696636,132.78451743375962,126.10593679590802,118.37988346161818,123.60186289720073,125.11925347621857,140.93452350384194,114.14108139482884,121.70556770357928,143.32661082938253,154.80160418584984,130.00300212091392,105.48294721304585,86.86825650674201,115.26766982248722,130.84474862990396,148.57811411659875,145.17971702846395,165.62184611372143,116.87914158227547,121.56218322828342,106.38860984718175,99.66037042878378,93.27192274195332,98.23880055980436,121.38351527730909,139.2930632262642,117.55536999304692,114.1575666421752,110.98339273510574,91.44760388959523,90.40898804383814,143.37009680447412,127.23651255444769,115.71704868251742,114.31069430809255,90.45808773517248,161.37136332639795,136.12057894163223
86.16271783914806,100.63135734409285,104.99230738340805,118.33832608078814,91.22525705630012,125.45969037525771,80.25154118517891,81.91830071912167,119.9652220204462,165.9603171179831,132.90349208111675,158.25220401454834,135.01779834517882,128.64238226002732,116.54749684988168,125.79035593510358,123.71152067178514,140.5997729674777,114.28177936804727,121.14577441720417,146.38682798061924,157.86294695599486,133.21435173420042,106.40836425211342,87.32661197816364,118.55636859434706,131.23515468656063,147.8172006173315,147.0005400544904,165.37948025645957,117.57384093370013,121.35640275225973,107.39657593536718,99.61567605064438,94.84982254404527,95.76005144664688,120.90082686162653,139.35922227458872,115.53098333944062,112.11781737581185,113.51920832663889,91.37365966683554,91.40723721491304,145.85054707226973,127.68801938957223,116.7422944291519,114.69777197214272,89.03751507860989,160.37918333379628,134.12088909772433
87.37770271113403,102.41687542244692,103.72253095300371,119.74984882200393,92.77394080446237,130.30767828393346,80.02407291339085,81.85652087936406,121.94084404970482,165.00072003191073,130.79706679538694,159.71199660245568,135.35625045614546,129.43985022281612,115.70093136030916,125.56175443039064,123.50017013913845,138.91927008611364,113.34474079709665,120.35592160570388,147.20765783336515,157.63955021501167,133.55232499755368,104.94256416615974,88.74088158256934,117.0549275048191,132.7512427249173,149.39156883868483,149.3410007019853,161.54274513925373,116.83554106184215,121.80400668062731,107.44692237558793,98.71168362789797,96.61035548616695,97.53847098254067,123.10706945132912,140.5594331788785,116.08493034528425,112.95664050461575,115.00389139933225,90.37025026254314,90.77882545564735,143.8969039216092,129.12409656739484,115.9039217738181,114.44822566658213,88.83791606067109,156.77298331365725,134.55539586979776
86.59458349479831,101.41794277874456,102.42806712358824,119.34913213761371,92.16917264994942,130.02559087948177,79.51185286413191,80.44691410000823,122.75441955015734,168.66063887943764,132.3947951139989,157.17626390758664,135.31177077337463,127.84141900850803,113.90044079660274,126.9896442399566,121.37654677870442,137.14008693612814,114.4021277783865,117.03750788923902,145.6729587516306,158.55558161375174,130.59022470327974,104.33791933911934,88.59244731825878,118.63204151519135,134.87210577879128,148.56125833556916,145.52033021755685,161.35821442707848,119.25879090636751,123.10689675606277,102.92184492207501,95.73960392512227,96.00673028216154,97.54930787978908,123.1761607993417,139.69188395660385,112.81294220988148,113.74709901752007,117.38673812816168,92.55722100208135,88.59818416456909,143.8671463574942,131.25038135908267,119.77611623269583,115.14069153436114,87.49144752794253,156.9332968650568,134.63411629461388
84.62899783135325,99.97465679566453,105.19614313088093,118.53484898893,91.77467442186052,130.69250227552365,78.51037030327184,80.56850257970778,119.8828104024848,166.33276755312198,131.01505279580846,158.57851144230608,132.30881151062573,132.08186144936477,113.05356690579774,124.89468720730845,124.18233755405852,141.60274423604272,113.65146537330182,117.1619667493298,143.80746692421963,160.90169276408108,131.62793228053167,102.13254250510616,86.69833768783954,116.88648280273087,135.10091817105288,153.02219763755966,145.2265011607902,163.09690638408932,122.37679279660142,121.06209044645293,100.61893208017683,93.51799956740359,97.06171876165762,97.6918464385331,126.77560436686328,139.42818326955188,110.20145418706758,115.1797714491587,117.27430394201428,91.15895322549682,87.44545059595437,144.5135813769272,125.94079342430017,119.47361132597393,117.25891139511288,87.64191857958099,156.46874640510742,131.7476312782601
83.8422871878983,96.54449277980922,103.19806797181555,119.9623666899438,92.05047056192582,130.7600534673832,79.4957954269997,80.60838172417921,118.08987867014118,164.17222799975062,131.15197941533063,163.1923813509459,132.11719388703736,129.9643684988675,114.99602957832428,125.78512393580436,124.69739791876829,143.43055641439017,114.67574001549843,114.05197721428183,147.55131286757864,159.76140695146097,131.936738217176,103.17445354902164,85.19723291467302,115.67855780576548,132.41564225445742,153.79332993581664,145.51689331306414,165.9226222188963,124.14044968331298,120.7672268246623,102.45608319263536,93.84881314289068,95.87852207254683,98.39529554429951,128.27067556233553,135.00882981558848,110.0671644100496,116.71165741998851,117.68909755196799,91.30881349188462,84.8603450364662,142.92310764510026,125.75625109611163,118.98053393741974,112.88423804872643,87.12357339117774,156.70065972930885,132.0274727596568
83.8041688451779,97.90591867667726,104.12998876407397,121.9620501189559,92.28413401609396,132.7678426429793,78.68766914881574,83.6504667119188,117.69808022666983,162.33292644701288,132.70137840915487,163.83064687375494,131.55620205787426,130.78130726436217,114.73717560846725,120.48102889208938,122.09837759839641,145.50849089192067,115.16420381216045,111.10331362683063,140.97015173584924,158.52211939208027,128.64466603497723,103.72278756571417,84.26743984618822,115.65334228414035,133.70707485067408,158.334499390476,142.07278532979757,162.57610850202397,124.90225150182742,119.79696967381425,105.1554735868843,91.95089159950952,98.37966497837405,96.84732059434133,128.8691564968989,139.03114448428536,107.53282605455753,118.61901179382457,117.61256831153091,91.08663176766686,85.22593423522221,146.2240083478037,125.09148562298795,117.63101124670906,113.10380120610694,86.68614957335213,156.0515855853791,131.17620393941337
83.1995261373489,97.98664466043067,104.21402650782946,123.5816451141328,90.70578287785615,135.29307871569776,78.54911847206138,82.36259365851288,118.60776580466758,163.8249725111551,133.77855388878228,167.11988350601575,129.75513687263944,134.37241894967673,113.62979926008667,120.98186739071166,122.15441454190575,143.51806316042413,118.56972203653247,109.9151890914853,140.5149083155475,159.01292990126294,129.02364995845883,103.35556577902986,84.06861592496627,117.5034881997299,132.98105088148233,159.14749755173602,140.40878834384245,161.08270879572405,121.58194670523709,119.81232571827391,105.13032573592172,89.381277022934,97.78024234174852,95.66697098913829,127.204777871548,139.61319945790507,110.425591839364,118.61206578199473,116.12610918684291,92.91848524162793,85.63228400393537,146.24558223073214,122.63625641211998,118.00206696955699,111.96165396176801,84.5074736912289,153.28855743333924,127.07305649596358
84.34647355873287,97.09615885765213,102.43485819175766,120.1543255907543,89.98159779115335,133.0848284281418,78.13657545621396,82.51774940381326,119.29725218379335,166.23016640594471,129.63185643001296,166.90340835383947,131.83943293588104,133.8057774595113,113.67165739705777,119.82649818164691,120.04605787062793,137.07966512041128,118.73411465780117,109.7042916644642,136.02483338068882,158.13059237393742,129.3620905096498,106.3772012653083,85.33392926640843,122.24196641075757,132.76932938858496,157.3428488342254,136.7714309817859,159.42295419551277,124.499183650494,121.51205589368482,102.4075629694905,87.5875093359725,96.88787618157441,95.24908118890701,129.44853574865533,139.50288041387176,110.18944301203173,118.21180292117721,114.19626072796333,91.31437748305969,84.5594958444625,145.62862706234594,120.73175543010046,120.45256299224047,112.27049590365371,83.86212456450262,152.72297442145017,124.7522403624977
